Probe1(Oxy),CH0,CH1,CH2,CH3,CH4,CH5,CH6,CH7,CH8,CH9,CH10,CH11,CH12,CH13,CH14,CH15,CH16,CH17,CH18,CH19,CH20,CH21,CH22,CH23,CH24,CH25,CH26,CH27,CH28,CH29,CH30,CH31,CH32,CH33,CH34,CH35,CH36,CH37,CH38,CH39,CH40,CH41,CH42,CH43,CH44,CH45,CH46,CH47
1,10.064963374645112,21.829514815111096,32.875006131070364,41.62525267108162,37.69277951599781,34.59370167382065,24.76140895762485,17.933266308237464,21.738976708022843,23.804973852757968,31.482823844884486,34.75626564245586,26.323470975322376,23.11115966835444,24.900679848886032,37.16339290523794,55.36361044689258,63.30253793354812,64.3476754296835,56.59282107125671,56.32869291233742,73.91736848786528,69.40836009186764,43.638142300884056,47.28843624934993,59.85341778642744,64.27439081609879,61.63293439807856,54.289552606517084,69.68585673429229,76.86020132069211,60.81872788236324,77.28740836530412,89.59179573284979,82.53588612054739,74.21133914263007,48.99853695215956,31.307594686328212,14.082908335488451,-14.471373706511075,-19.504676858404352,-3.4683277511849955,0.8352396590546056,-8.265413414281081,-23.473862666511774,-24.277251747851846,-24.26983080471495,-26.80743840164768
2,10.200096101761064,22.72169262016808,34.74001917234383,44.03556002172813,41.20875470661046,39.12190431125175,29.331643194998133,22.272970890153026,26.423968646835448,28.664930646156918,37.362913099844796,42.36832478811014,34.53447669838218,29.814700383638964,30.200706270709706,42.731509572118874,60.501253812213584,66.88309567169917,66.89514668993635,61.23165097744436,61.23774762682604,75.80877483156993,70.32128763953426,43.285038114357704,46.23972468375507,58.88616479367646,72.90486163912053,78.21364491181613,66.45919609851794,81.21315817151675,87.66499530363645,68.33400898053168,83.86747985978516,101.22988591082554,96.41914507619128,91.50960899874575,60.35615625916259,24.7142744516291,13.266718562349958,-5.834056291582762,-14.342624758165453,1.1437431988317428,6.768640155200455,-3.4514047141501702,-21.333166718567366,-22.336274684578285,-24.71990937617975,-29.880633761892025
3,9.310415759656777,20.829544612726675,32.95672754074805,42.11341128883025,42.52662475542961,43.29343238223365,32.18239298025084,24.071053063210595,28.316952364811247,30.762077585819284,38.18244741097162,42.03082506692047,34.39810035759566,29.279512965039512,29.73893651981001,40.69529820366006,56.20814428781494,62.88004446288183,62.7205429559578,59.22959151471863,60.639890627066464,73.57148166081925,68.22216366492421,41.45299665874714,42.28693998358159,53.90486152168518,61.83261670816188,62.932406043587136,54.9839775959866,73.82434945662143,83.41428226903841,64.84700247907918,81.75756984584444,100.19322864425997,95.27527475369287,90.9667648194843,68.67198165488358,41.687529910563136,28.987931837132216,7.062355512160501,-3.6746241516841422,8.521752260049471,11.544380164116358,-0.41969842784552114,-20.124285681062055,4.425857539089254,20.07970229518459,3.0204730464890037
4,9.414832642184718,20.62435391309911,30.657671087168445,37.83094784380914,34.997473048601854,34.00608532965977,24.91494718246333,17.83997815734192,23.332082053857455,27.570936459760382,34.48926438695575,39.21838130618933,33.71841386072876,28.168839098462907,28.605311461870006,41.68136248996354,58.64700652677992,63.999272462299416,62.48693742343271,59.24594195982538,60.76933887383935,72.88091926738325,67.20959682208516,40.0949001213154,40.190440902195405,51.222541032675146,59.40982561247265,60.81607431805181,52.93587401892342,72.41451251776459,81.9384472970074,63.05057327349906,79.7683271427723,97.73213117957748,92.35160729074197,87.26477935170132,62.32508310791812,33.714052685228886,16.79133730959768,-7.93965457939839,-15.34998027936959,-1.406100664874676,2.4190573381819904,-8.546759721326188,-27.454688640140315,-24.493321245590842,-23.697170121596187,-31.272374861316624
5,8.094312354626506,17.346236629290154,27.014325633479537,33.541290276954506,27.35794849259241,24.949333297432872,17.40742999859857,11.48204608770516,18.106042039267624,21.894696801317732,28.299569657547863,30.101462782464328,22.03006953961557,18.21623897406661,20.44131790552892,33.271542306008655,49.807278242663244,55.98497697645581,54.79873997727569,52.380274489713926,55.23118037522755,68.08077464557428,63.070589597636626,36.53541607910212,36.79707633053098,47.79995859590289,56.119069934695375,57.82236219060371,49.838409291554285,69.4533064303334,78.96532962181013,59.79219866229718,76.53175358741272,94.70492439380162,89.29427856413093,84.13117532936361,63.79028167755777,39.001545127514646,27.1443103504224,5.205124700329591,-6.249916242128421,27.28009087398476,45.02688236774164,21.954702397807676,-6.439363814064704,-14.184530518365573,-22.28591731102754,-31.850817349768732
6,6.770589700872725,13.824997934817333,22.18397535523114,28.2689757081006,24.439157948986953,23.677303902732447,15.105403941909207,8.469463147629895,14.968136550568605,18.70192217552892,23.287901879109253,24.03734981442132,16.275221083387695,12.45472461412243,15.372069111728429,27.561520531475814,43.31528883708543,49.37143330189172,47.2616918987378,45.9244508422167,50.00729393332359,62.40916478446238,57.41126180086816,31.093999361698806,31.48433649044535,42.64227938087511,51.47915188751596,53.7282526141455,45.64791226215177,65.70643283854896,75.44918887780058,54.9985360111268,70.97451324206429,89.50676415151764,84.19414277591025,78.83419449711685,57.2351529730475,31.91360036690918,19.702305952277797,-3.283673561347328,-15.963106402340898,-5.7912998331264625,-2.9062028056982965,-13.931934995021098,-34.19121227079559,-35.17050205810496,-35.99952527474789,-41.06554041112547
7,5.6988413257407045,10.78084316342792,17.233230208410266,22.577078739557283,15.275984623056829,11.965585517208908,5.299907401312781,-0.28077476019175496,7.515265026677845,12.36150578473401,16.624033038123724,16.02665918686477,8.083890791197843,5.663339321593603,10.025687248416322,23.652264447321265,39.755990549670024,45.87379950976815,44.02977260958058,43.56387724909544,48.37847072123034,59.887909732270145,53.92875990795895,27.764110300102914,29.311052396301463,42.13659263582808,52.36468768851812,55.26713524985036,47.9255184826505,68.91333606347555,77.39123615649648,48.418424205744095,61.06572647809222,84.95841123001229,83.4473263655014,81.19923086279115,60.91480837466609,35.26535220316845,22.825403031369376,0.960516678381385,-10.211664473368668,1.8576701530597712,5.934245753632854,-5.871941740309668,-26.45623937480714,-27.645835934489593,-29.84140105699128,-35.155161764399125
8,7.444751459888486,16.44969010554992,25.848856165240633,32.85882385320792,27.899330868988866,25.75789376518554,18.87148856279555,13.560798311561154,20.86573985787884,26.228292425642554,32.66975246668966,36.89314210220275,32.804072906857414,28.79964645064291,30.233692801306557,42.6885912327279,57.30331777866603,62.49853980840664,60.52696224100261,58.67042741885746,61.02925924407934,70.84078412175518,64.76573774434604,37.8562570311437,37.996937610710184,49.36239841074225,59.257296084936684,61.99358525151551,54.32402176290955,75.53631344837385,86.0633465377709,66.56874509082563,84.18685350596715,103.31452794053304,98.12271247194775,92.84721347400219,70.07151297078374,42.335158583333744,28.650576508417835,6.663028161294136,-4.810920732587336,5.073275922221067,7.334310722338638,-4.1549518327545965,-23.794422958791458,-23.680811534449955,-27.153519025791237,-33.54115783640632
9,8.535395872672401,19.32648520053425,29.72896399703125,36.87490925116894,33.74352141456613,33.24119330438739,25.85783929275648,19.866376678001473,26.492928241412617,32.51576676734883,39.73101184698214,43.68768464114749,39.37299539295971,34.66796943044779,35.589167221236664,47.34848113681241,61.08305277140959,65.9955820899086,63.86115665496141,63.05832430072256,65.55902679104814,74.69466302805307,68.67553502392511,41.22058838978019,40.40717582138523,51.08476954853574,61.09118496478037,63.91683071626166,55.76753318701423,76.95438627524662,87.40138365147878,67.54510948356796,85.23353632854777,104.45507535051361,99.26830917100517,94.21829812673042,71.80920547044256,43.79099538551889,30.35926098681095,9.06577681088579,-1.3667735449409584,11.825793276616167,15.896965646512477,2.5583407098470197,-19.450185183389305,-18.671493011096118,-21.77531744092326,-33.32829895838187
10,7.8012136427190555,17.788789505296382,28.70078760460568,35.780750057468424,32.52420266875242,32.75200010356105,25.312729112655333,18.6072649110591,24.840580455161245,30.877996583052436,38.07242144225653,40.02795337957344,34.14530755263011,30.217907303491785,31.848352269825618,44.62473591637473,60.287990411041456,65.80771918512639,62.9388283772865,61.58167467807382,64.17215846784123,74.7785172435423,70.34889070700966,42.795619356515644,41.573794139132296,52.21858883683432,61.92719973166108,64.7815964242023,56.455468557438145,77.35625320653565,86.84028721977529,73.61778003560292,97.12203926967916,113.6052523612854,106.66818725181543,100.45489700300736,76.89520717888806,47.579316492615156,32.353981324738214,10.041859616928951,-2.1375757193755796,7.612980421466346,9.703416819768435,-5.9480343922177195,-28.6192488074996,-26.775328815342718,-27.385346512945084,-32.211416724288306
11,7.151866468898175,16.24380397660852,26.862109608304458,34.348785976236194,32.7567053533238,33.85023599075559,25.634428778803997,18.301044860472597,23.689964541284468,30.335124584111174,39.74343502640036,44.010919023826816,37.946352192650444,32.21547462804565,32.367229680624774,45.33898120857434,62.245764064650274,66.30124680037525,61.69922484646435,58.19595074740184,60.03106527630594,72.98440234245635,70.37159765419405,42.554042142842135,41.02468779022236,51.921331024930126,59.90342669345732,61.10334826115467,53.15827990875453,71.8399414910694,77.4586455225189,52.698656718964884,69.19526125064661,88.78031459652628,84.61759611337473,77.81409810335505,53.872297722370554,31.194971257300367,20.437646913884553,-0.1073912859750763,-10.68863888676105,-1.1953568903585419,0.9274959928237734,-10.23162476050201,-30.032458924269243,-30.72657111102954,-32.08689152566548,-32.83189030088438
12,6.746039725423514,14.734322651016123,24.45329683609019,31.430076325024807,24.361097381898354,21.66655641330407,15.663422374003591,10.202316516259824,16.51398753705409,22.23571691815233,29.979652869392012,33.77825429148217,28.01175278089066,23.609304152785953,25.01154247350178,38.87754496743136,57.09380089694868,61.52844771102703,57.93185684271834,53.473992681622235,54.46153212032873,69.33788626808396,68.06674384229855,40.63029805526999,39.24515235163946,50.52004893039352,59.88154549772052,61.66208335762655,52.32401750801646,69.49591774532757,77.486407966716,59.94973361767425,78.35553935877132,93.24843744185824,85.35441669540445,82.36342868150054,61.73485104242963,36.95742656771421,23.590595732751126,0.239298210583474,-11.1969429189577,-3.069239331947038,-2.750604619337513,-13.885033316052217,-32.57853327211934,-31.404578736337236,-32.43332758043554,-38.436708200364144
13,6.6078722388458155,13.605303087985835,22.120970122433107,29.20882971084027,25.619104278829834,24.908022196256514,16.758529041129147,9.377563610447442,13.98050832794386,18.196409227187747,25.211165760130946,27.11482948696363,18.989092406076033,15.058289402787134,17.228132678006688,30.44479061237827,49.1328068247155,54.812955351702634,52.787433558111644,47.51210988659234,47.74459319206187,65.11810643220532,65.43045536091255,38.411898856241045,39.92540854996329,54.089532956672926,64.55124205990452,66.27291005062473,55.042197897545,68.83319212973497,74.66995134880605,57.190620632672754,74.20573036423738,93.0265918395681,89.48852793731646,84.50288190377854,61.65334686750894,36.92571254250969,23.56244132326954,-1.5697592900788777,-14.331591583102192,-6.58951847637377,-6.778486732607551,-14.229443292528146,-29.892533592025124,-32.423300673533404,-36.39250225638857,-42.230586511035995
14,5.431747662806925,10.586714436768295,20.719213123528235,28.723551065725566,23.941614109288015,22.99461472756304,13.96113680621432,5.864322555931249,9.621314606540157,12.960131802875466,18.5099783139421,18.265627366883866,8.64325962045148,5.873250537490982,9.245492169140407,23.533407972839132,44.05505355931597,50.222669435773504,48.403085061575645,40.75280745654964,39.79494790390487,59.48402428066189,61.26488102625064,34.794253110091006,36.2031650552007,50.850742132315744,53.58202334608267,49.24291993349112,42.47568239979423,57.48853293825926,64.2337357155299,49.100145208340024,67.13133492290882,86.9314882532783,85.48514842745175,81.29174792074949,58.11341216964427,34.879701869527494,22.07164710911206,-3.490815125936283,-15.663688805758541,-6.726857256977151,-6.799580767172896,-19.309064730359392,-38.1708702086926,-52.044115831545405,-59.482837950970676,-53.32886148968454
15,6.75991697898446,13.548611911519744,23.002990703648752,30.55849586540343,28.330311807678548,29.306761018575,20.086483223516687,12.218040711808076,15.373119610018254,19.663622438059868,29.506307796439287,34.476684831954316,27.06394568685208,23.358783621787197,24.42690469052326,37.58091687564135,57.679128093634745,64.02264026562831,64.04038798838855,54.440746722916806,50.37670313133246,70.75101761402865,73.25949142151202,45.28296827463529,45.92998798591634,61.44331598363732,62.98182198716969,57.179099860184564,51.38803053019224,65.84928556598682,72.27370989930887,58.260944740370654,76.65556439675035,97.97912590388401,99.14252526220922,97.70090124678843,75.2048275617053,48.371440741781086,42.04980993089069,23.505840667547037,6.871471867732103,13.127995139697237,12.382127546212413,-0.20962522519747928,-19.436388083393233,-3.1991797844337206,13.875546347891504,3.122787655428578
16,10.206445964305386,21.95828260980937,34.00305210118334,44.08557265943969,41.75202865437946,40.67284209957928,30.800539396587986,22.893833846788013,25.150095401852994,28.775352776575268,39.75064437540061,45.879719138631074,37.64486673619577,32.621678070400606,32.431618088909694,41.54915879447112,59.3255198546508,67.3727545578191,68.38308983216027,58.2260847338544,53.25860008766486,71.90458011862724,73.40474418307076,45.72928503769052,46.08658881397962,61.761396162054865,61.06569759332349,53.44073193145546,49.60224594749147,65.46480954384919,72.58179866165813,58.98358600335526,77.46918600438357,98.56578738334875,99.66644131450701,98.15086670148868,75.56723133740105,51.47858296941225,37.58690348773948,10.634213347328977,-1.8656253967523497,7.285534861129804,2.814217836612659,-11.84891638991984,-27.57955706861797,-27.320269660453675,-26.30592000568207,-27.872635731753423
17,9.465318119498233,20.897733881350074,34.67873703477979,46.01801823198818,43.07068731515191,41.81913022529008,31.91491097680722,23.85292405381285,26.840061615002917,30.418900634209965,41.58192803638067,47.86088668568044,38.861599714539636,33.03634094926544,32.1334379783141,41.06537800098555,58.54230741474013,66.77326791905148,67.34119495347214,57.650675533263794,53.310171005672416,68.98982735724516,68.36070095121637,41.71133432761344,43.45701482699806,59.42669243109524,62.65389269859881,58.06778466191665,52.801403932180605,69.00625629660092,76.16141473870465,61.16185035755394,78.95191242018235,99.58959441688422,99.70244815484594,96.9334870247451,73.35134512686614,47.57371943277957,34.07393623797743,9.124163466551634,-3.871251877928147,4.222085056685451,4.8050483535850645,-5.730589244827404,-23.547150044736753,-24.362081525403553,-27.828669505492215,-33.17200675699022
18,9.123128528715563,20.004259159226567,31.778824174705534,42.64420358370563,39.90513826556762,38.1250376751361,28.933549708106312,21.09617470743319,24.950106893631904,29.040046994578297,37.717741181949535,40.34916142838459,31.416939879841706,26.838683869919052,26.737417469764843,37.79677356493881,55.99201731375525,64.35354143901304,65.00942582053185,56.719901427496765,53.55413171842633,66.55377909329502,64.10213096616617,39.261923001159914,42.20269265790002,57.490314468907286,61.69132215549172,58.287317160557244,52.69455315455556,69.5418688830809,77.0670169144402,61.04361086883046,78.37305554246095,98.66142480108054,97.80429662814693,94.17535452572783,70.44820903614638,44.69465939972632,31.11542297517038,6.045019294569698,-6.87079970003531,1.5407972336019982,1.53004258238551,-9.501463887699583,-27.125250582252953,-30.986497166101017,-24.420720062899854,-20.990559363807055
19,9.353135575670043,19.639498966244904,30.400398067258816,40.4671370019803,37.89413370192084,36.57448755296593,26.775384620044967,18.451232309754083,22.39735000798484,25.908646570876165,33.36849799533023,38.12399085585774,31.146425003388057,25.272881383976046,24.5825677963659,34.844450197927266,52.511505639319594,60.93212445440152,61.4506605636645,54.14919075402308,51.587992831183506,63.61165787020383,60.26672615461009,36.11576572733074,39.491386120367295,54.07851649259329,58.819677950579155,56.25967657339253,50.34865864961995,68.22766315542859,76.65173488175898,59.879957810200686,76.96618577029761,97.13043762052581,95.67777976096173,91.87087565012975,71.77104442854356,46.01854977771799,34.64870058017451,12.711714746900526,-4.431073848959314,1.2457862466716465,1.0192896394944024,-9.732770140978328,-28.64055255813477,-28.144667381594594,-28.771092441698613,-27.042215086352197
20,7.599612413194871,15.658590933681364,25.589268945715688,35.24707240218358,33.457389312263366,32.87794653119629,23.02286921610258,14.483023407503875,18.56973278666328,21.900072167868295,28.67040732004609,32.43739806196508,24.44780048809458,18.928633187617095,19.40582087293618,30.714211559594126,49.251269952469904,57.68957847113322,57.70354693028433,51.08121150769001,49.86029039196963,62.47381561830322,58.93895161131095,35.02629924524287,38.7504504458791,53.05452796127341,57.4238450407646,54.383718790914266,47.97932347351561,65.18702286170756,73.07163376168526,56.02793109266378,72.86325813932027,93.14157122725614,91.8354649909254,87.71919464501785,64.4223472022165,39.52905185257613,26.61847312160511,1.2795746528322276,-12.838299371168318,14.728698005564649,27.895518908226336,6.661249207109686,-17.783042609510062,-22.252132531690055,-24.025863920364813,-28.868860654050433
21,6.912248336802461,13.360169073570315,21.747960556700896,31.102607632307635,26.26009732618956,22.94174896387632,14.3024267237886,6.850452212012664,11.919859542813535,15.356833038392377,20.280369155761566,22.33220764673927,14.315493514576357,10.20264965516536,12.29271164634466,23.39483784113507,41.69255255298904,50.48993944020031,50.63801224769888,44.511258250391826,44.42244057658758,57.952240198517615,54.69524544366115,31.53115350335487,35.96893116471554,50.688591769914126,54.9567277971626,51.52682522644335,45.17827130065484,62.72978696473384,68.03211818111265,43.77412564242695,57.679721987233265,80.92189004779749,82.28333081641314,79.75567274185798,57.57496059340644,34.4701961259564,22.624803021188903,-3.0473359684951262,-16.884425533021073,-8.719829396104252,-8.959898364411515,-19.922031557467257,-38.04979545462414,-38.857135774019646,-38.13718263838193,-40.24922826680902
22,6.900793219922096,12.427711595921782,20.609480480439032,30.17911525416978,28.187521684315865,26.93991291702197,16.021387396250148,6.856362604393947,10.762706146673127,14.856949314198278,20.372025893820524,21.111899157213564,12.063167205280793,7.927590778700313,10.238705429337543,22.68663833522666,42.468044328057225,51.79102733981058,52.22912805327461,45.465600176403626,45.061284632785004,59.909912988108374,57.35901163228957,33.480761472260006,37.60981184339295,52.795401874569656,57.56769123308676,54.788184036392266,49.5563081927706,65.85448482568145,72.29976187173074,50.267708364482566,64.25274556989692,88.30429182992908,90.45390745522144,89.09474448423151,66.60971866527079,41.71625477622053,28.135715014614405,2.296865816838217,-11.26313522332965,-3.7756643817074376,-3.174630860527686,-13.144323872433569,-31.2655698756541,-30.207709909732998,-30.209862092327988,-34.043098313024004
23,8.285856849575683,17.311847667106665,27.217726280386806,36.61280775305437,35.09082336925976,34.622500428690145,24.786929007174813,16.55706018026308,20.579032149463888,25.067814360486906,33.47404566419719,38.32291430827662,30.94570689613716,25.309718338855365,25.252188514025136,35.06641112486571,52.34462292925858,60.69615459834926,61.39735220793892,55.051007958034674,53.79629559053556,67.46897307853008,64.22452907558612,38.52944623834263,40.5508979759003,54.486467778294426,60.104068837051926,58.16516234765194,52.060133016794055,70.40007301343225,78.75558207853113,60.76036448644563,77.49747759496319,98.01463501066374,97.13544261225044,93.62111548113853,69.98602343006924,43.710842798751635,30.29636253660917,5.890824180692139,-8.583182318871138,-0.9410411606661928,1.3813624792520978,-8.972354389178076,-28.465251160720307,-29.94249255688379,-31.128612628868147,-34.64305221805948
24,8.858859076200929,18.092987408873764,26.905431913402772,36.740200092976515,35.8585306436607,34.796693197432944,24.809630658266933,15.947072448545107,19.994982601649312,24.370493434585804,31.965342315070618,37.20776083923141,30.55380201542781,24.202680291529333,24.26955213508615,34.49048237211224,50.96068823832715,58.820676007336175,58.71250058996631,54.38323833388843,54.42404191106565,65.52279967382961,61.27252522769916,35.59920424367631,36.63837258032211,49.765692111612005,57.25354147220399,57.2473954075252,50.87338290187954,71.71516159277114,83.34343465275157,61.93142180512821,75.32868559893001,96.36256238843723,95.28617012358232,91.70091575242965,68.13936216248092,41.81964788236314,28.231592048844686,3.143248455088308,-12.409608304483662,4.0237164450031155,13.806785625463771,-0.26758061585803716,-23.07589042391617,-27.138338236593114,-33.467370560169115,-36.25292652044241
25,8.023174566754538,16.15641480558926,25.442374854769902,35.5868796736798,32.96500825878977,30.85516237786064,21.495956693241865,13.237459173643753,17.58249242739027,23.029193276803678,30.829891170030304,35.14665389289939,27.790151156387992,21.645613114861323,22.10951986505407,32.5676167586162,50.08365136399012,58.29798318864966,58.21883991986462,52.08270632201106,51.18941658114356,64.03951304645499,60.4806986803589,35.66862093662335,38.24293289107746,52.065665640139294,56.87315089512285,54.32794332508262,48.842132012834774,66.26189187076608,73.23588431550073,60.57641293238893,80.78979395419259,103.34784494100548,105.47802541545825,104.7189171914126,82.48282094597855,53.67062527675673,37.04288066077727,8.008858912484254,-9.429517454688789,-4.14007324218524,-2.8843125639048877,-11.578079914173552,-29.578792005205585,-32.14759876227056,-35.19720655276852,-38.01410993037704
26,7.740455117752936,15.174066707704391,25.40005011565432,36.91047030734757,34.70294341093832,32.35639493146239,21.926462186223457,13.0686090628241,16.077095156976398,20.596996135966933,28.64992211073793,32.85506232479722,24.25981521571702,18.2318552941469,18.814202381267087,30.200457456724656,49.67943422997595,57.74041487193171,57.822189975418155,49.56308017756711,46.604578276015495,60.607920182983634,58.21600940425156,34.391962806292334,37.95497113529433,51.856657884592295,54.418787419333036,50.08043138310501,45.035007063829056,61.616461010866544,68.41986272029817,52.135481103448015,68.45597133342041,88.67655891769897,90.49586530073925,89.81763191762442,67.02270252876087,42.19180622562695,28.237988132859847,0.2829140621778805,-15.666467228191305,-10.199552988049682,-9.740286495148375,-18.74575509811272,-36.79104578584643,-37.418040595778244,-39.99764928409838,-45.73888986921025
27,7.5195530929467544,13.88213474739262,21.752880610182167,32.008093567760184,29.30459126042503,26.51659701805486,16.46676614978796,7.767930347035046,11.150436356248068,15.685019371996912,22.65382272261256,25.350656107097787,16.09406080324199,10.873172915274399,12.509720968554927,22.813490066923865,41.962550141933434,51.74174445867132,53.02310986695722,44.882766088324885,41.58552246038563,54.82482505921749,52.52595388541032,29.925839444161703,33.38354055773176,47.465775759273065,50.65678558045503,46.48735053194519,41.63011574228703,57.86360186398693,64.52505591228002,48.39231019015053,64.64997676565922,85.17199003903632,86.63667132046788,84.50337363979894,61.36107978969216,37.78106514713172,23.968765356880578,-4.527473205375699,-19.43728690335956,-12.33887612832403,-11.051838081867531,-20.114843733087994,-38.63785583838444,-39.23168176084728,-39.17945335141059,-40.451213360537906
28,7.683632513070135,13.136272421021435,20.308319489943727,30.73515059483533,30.10799108115288,28.59082398885782,16.711594119748064,6.904770199062341,9.57349183058899,12.443581014095045,17.587800004568226,17.073084532667178,5.355815214894481,1.209459779636754,4.292596908528689,16.296861760554144,36.557869421521886,46.61636030539103,48.44282607224009,40.56250263148936,37.27690872151451,50.25768125295444,47.81206726167874,25.28465487314143,29.83600547170684,44.74172385314023,48.544443238519385,45.07571964907709,39.83922058834477,56.498293330259784,63.54612364986927,46.69121279235032,62.684072319862125,82.88754509309655,83.08040321481595,79.5506217192759,56.272975405904994,33.41157200771228,21.04119565052083,-6.385292686155903,-22.215587847356254,-17.19857035858519,-17.975423307388613,-24.56352695751538,-40.07464034673343,-43.49586236446505,-45.30219719372677,-46.11118840252607
29,5.250890050926982,7.8756227930241645,14.652919466497451,23.84087752137734,17.892611959891205,13.950388378310707,4.805000575023646,-3.6075821698154344,0.4437817967578319,4.541773527442858,9.00229744860262,9.907653465529462,0.36688715947079586,-4.023647627017527,-0.6977195879875019,11.316463032096527,31.265251336701997,41.1200682722982,42.62829190736441,35.511147052893584,33.02418797600602,45.83906872056178,43.57417323651701,21.31310025130053,26.20926819437314,41.778077738595435,46.26054687666073,43.32375028781382,38.20136978734384,55.014587492429165,62.1525116156591,45.14065925574771,61.37374873814396,87.9965970511623,92.79816283566402,93.88223030894879,73.68245143512601,45.29160304953892,28.44806522404147,-1.9196318200749936,-18.760387221451982,-14.004979979062078,-17.38771357539192,-28.81281420999376,-46.19208247775769,-70.80649427702032,-95.23471183218498,-88.26722638741222
30,6.763673723099891,11.70140997467829,19.222680010343012,28.93833637357958,20.82565720904475,14.987831336791885,7.458887495746031,0.9373730140613734,6.094121808179328,11.256192788646256,19.564977742853216,24.406950093952258,16.72800986468813,12.2190292796178,13.71698892285074,24.30874472594998,43.338625988226255,53.95110493911381,57.59285158092857,50.39606360041666,45.584071739313615,57.16864141454232,54.72437659776881,31.75683244893136,34.33134847273699,48.47230785667737,47.356835484594924,40.524395214365924,38.976259917068134,58.27295119193046,67.00529336630959,51.11502499239198,68.86854360583348,90.69326693120658,91.86326186384396,89.26028950220388,73.72367188880919,57.891979219437715,44.93808345680422,16.76307517716731,-1.2802301585625582,2.3769795076639464,1.77683247262532,-9.202734140622127,-28.87933505151338,-30.31035781143224,-29.677111287930778,-31.15742716772794
31,9.251050182854529,17.801508761806218,27.01598497023459,38.49343967185655,34.16784873137998,29.633394610003847,19.844901109230708,11.697400803871885,15.321348010016376,18.966627643048355,27.02571826884617,32.667203834604,24.528667879280412,18.200215197474765,18.089093402196752,28.693845190657285,48.27158908155945,58.51932787325421,61.16961274078557,53.15501904623482,47.44729366279931,57.197570298306985,53.951337112566435,31.169271675096546,35.097700272356605,50.32042507892493,55.43374086384958,53.07199968824177,48.35281867119584,65.61338813650072,72.57285087459405,55.389783264544384,72.17315328050452,93.11965084397409,93.66042935298623,91.01000004893874,67.27880960999454,41.617435377836756,28.168162990896715,2.0095328926881955,-13.40460165869456,-7.589934194296092,-8.384194380493529,-18.83350178952999,-36.220935494953004,-36.781024466765174,-34.787096261281704,-39.553771631853735
32,8.75195080547286,16.664669781955723,26.826832107864,39.804289074084465,40.52129485179098,39.06528982642122,26.52814878924178,16.227102433439768,18.401695506160287,21.12364250982199,28.48432755081202,31.547488181019354,21.166935500322964,14.77244894746995,14.934798670882651,25.460468583348348,45.007686728819564,55.68640740691031,58.80052069748548,51.67960729650976,46.21309301285952,55.619153018131705,52.45668026339171,29.743199887247567,33.399333720291594,48.291856895255854,54.003981075713874,52.61919028920561,47.73001079752584,65.29059696411339,72.63126827984017,55.02383060777245,71.63432675458392,92.34318918959858,92.32543822141542,88.97591582670262,65.16001731811807,39.86619812806387,27.069531866623777,1.760984936424805,-13.40224386188753,-8.343922726337208,-7.832709090821699,-16.819768458311458,-35.069516185290546,-35.65713693987184,-40.05698634511762,-43.68890450564682
33,8.41798842209281,15.822212692534329,25.165437853977735,36.73402040532172,35.117138425955,32.97557716996681,21.748793295384836,12.086904695298912,15.016628367761276,19.138933354749042,26.560996835296915,29.98378094248136,20.516771922096005,13.819448556941769,14.041679869173862,24.21833792724736,43.273865983848204,53.487691764536265,55.861013817178105,49.14740062241331,44.47373181616748,53.473844874001934,49.98141743040511,27.469184431891584,31.155229537673886,46.23837750526129,52.54793724704967,51.37755997096269,46.197069021204165,64.05732993656144,71.6566969629867,53.64444656583289,69.82095465252651,90.29341417458728,90.10410657308938,87.1966651477882,61.15364721547144,34.97549718417682,19.718191590961474,-8.482412251022257,-20.871437084977483,-12.888034996242151,-10.452919452326325,-19.239043027787083,-37.817823965355025,-67.24658118251307,-87.45734301763511,-76.45828190109904
34,7.081021945412418,12.614697595249845,21.251553051596275,31.727257972206807,28.586034865932245,26.238257833792236,15.68210789735963,6.53420058512542,10.068520762934146,13.550696469550918,19.754182441892222,22.21162752291088,12.118595976521721,5.971992071640372,7.188101110560027,18.913328419553423,39.47342002641155,49.98859466917531,51.8871759403217,45.186577349425015,40.81462062886283,49.53230908548588,46.17623440660643,24.261913493334742,28.244701969853818,43.32194471656252,49.551369925232144,48.30597332649209,42.76898634837869,60.61722716141975,68.47871259364416,50.43748710109687,66.28181090725741,86.46603237830352,85.8295305195806,82.05510312579646,62.55636839138022,40.905057469491126,31.484813125843804,7.281049081632915,-11.93690410662011,-19.82932217371813,-28.699111385320766,-33.73148342977926,-49.47958123971164,-47.55792373244697,-45.51541821703541,-45.98199451447698
35,6.007160038647397,9.656624647429933,16.842405526382834,26.869093600646043,24.769927914554692,23.02200498809829,11.948952348856102,2.3687680720098827,5.888577288740202,9.088005938609555,14.674659170671204,15.70770170249894,4.258379080500309,-1.5138649480885027,0.5548422387463331,13.160467955898275,34.1477393358609,44.54990222945156,46.51314630908874,40.03560447068181,36.121070047635385,45.19278184021786,41.989456746159775,20.29925590317844,24.606365541048973,39.708698134545024,46.02647794348808,44.9044395309124,39.258867616917435,57.10810430913326,68.37935940131922,63.379885133501745,85.12496837456669,99.19669920025879,94.05856203523882,87.24458286343918,62.1986386910247,36.308574708935936,21.85132132956887,-6.569018015019495,-24.703125767808306,-37.39490330028556,-50.289199576748395,-52.546228652850004,-64.83960223051236,-61.16751897698967,-58.75939332972169,-57.717856263001664
36,5.234648767975008,7.099167989033146,12.876043691205965,21.20551437956275,14.71825764611768,10.997503472884187,1.7619018622290934,-6.498286477772444,-1.79341653814578,1.8671045086054945,5.590792206997173,6.196853976218156,-4.043666773318414,-9.279426613546725,-6.279465724677797,7.151408049699114,28.891006071558287,38.86210898980558,40.505895948982165,34.63803717075235,31.250172993983348,40.25258483814121,37.02701289688886,15.704197407008849,20.462052834207196,36.04389390894448,42.490876352769554,41.29291285437765,35.57755387745582,53.85374062395141,61.202119162023656,38.51017627001893,51.86312480540519,74.50969885241153,75.7396638247292,73.19260215289601,51.20649156762753,27.967864418250606,15.859935538791719,-10.756530778631216,-26.48088795672093,-20.541216978315088,-16.05038171140285,-22.51386076076949,-43.24007775526845,-45.366858740463684,-43.7786833108982,-44.13596821242348
37,5.590102328202942,8.260169641297345,14.440292550833716,24.197708347574554,22.096518280756456,20.277058063508157,9.409364177613451,0.12541306000058272,4.068209925894061,8.257418856123914,15.105364725451608,18.902203104961266,10.088004019238186,4.451782800611526,5.671495103264015,18.11248444314088,39.399422906236396,50.45145402136825,54.20952581487116,47.76125340259651,42.16073732612862,51.05678432563296,48.035455437550695,25.27704233826493,28.603027792719995,43.92210271136154,50.62399581356064,49.32185657234082,43.94632504373591,62.315719688961245,70.29561291471283,52.3081899137422,68.58659119328814,89.47703387969342,89.51239992476921,86.74445645142742,63.72346511126663,37.9916199141286,23.381027457012408,-3.5113940757809665,-17.645679879663305,-10.657001303975747,-10.544582739162196,-20.9483567425127,-39.435645104291005,-40.185048345297545,-42.35647256509435,-44.496438586139256
38,6.769024548876396,12.217850135101584,20.29142372673829,30.34583530278246,22.449880593974058,16.428862506392807,8.307955310980445,1.0557022420980449,6.049242936716329,11.277164757061545,18.283007949489836,21.934782345410138,13.664258197210863,7.641996084197299,8.325640248534421,19.839727871773405,40.549520370073196,51.59618363982992,55.51017446935559,49.352877335386964,43.55475140436237,51.489378437431554,47.78336790420644,25.185938854935205,28.435165667569134,43.60901412850328,50.55430635795083,49.508247862007906,43.92790168582593,62.26516715538943,70.30856058123952,52.107122433928296,68.21295750202958,89.02976858012889,88.81856093617691,85.80283062642975,62.74738908391406,37.122747610275454,23.63707166169465,-2.0966957505821675,-16.695542623208013,-38.821537595199814,-63.599507398226635,-63.914074370173466,-71.16435807047799,-62.9972770375453,-55.310479459236916,-50.93836718608503
39,7.532094531825772,13.161755828282413,20.768912572603313,30.91661510278817,24.533605402114357,19.394171280932873,10.1329337578938,1.758909698454369,5.978294892291737,10.095475710570167,16.387270565673433,18.458403391292048,8.569383270429324,3.095450850535292,4.44228049335011,16.367117414830837,37.35266789487521,48.68730043713694,51.539729342749474,44.81278121229387,39.78714515445799,47.863327504610574,44.487589437706,22.518500030887523,26.1183150775995,41.28552556305976,48.36294405959947,47.655193939299956,42.378771828787016,62.6201431581391,75.11354274109651,63.20274788846121,80.77901564630912,97.6862870126069,94.49588616035331,89.6850240586855,65.52484421177482,39.052903464048605,24.22108090021086,-2.9732858395394715,-18.318972941891403,-12.9472659327823,-12.582767593457193,-26.76112926614168,-49.4883981486174,-49.570802329265916,-49.20022410225767,-52.43947704405705
40,7.173547852396559,12.212906134143418,19.893943433316103,29.58327715857595,26.190398068982372,23.88033362266438,12.90232076808522,3.6024407288806826,7.394542167101982,11.165983272575264,17.29346999149671,18.613575476950125,7.631103622008273,1.537800337993748,2.7776236921751885,14.686804628724715,36.0001518748671,47.430214919749645,50.157296601934576,43.80951350547514,39.006966959025746,47.007312624131515,43.45301798088985,21.29599702702876,24.729536495961288,39.93035733737433,46.901511910200405,45.901481239753295,40.48679682746214,59.28367693492272,67.7389736812486,49.7631853686038,65.77616983680166,92.69676193575464,96.109281749439,84.69217863707709,56.60147429032276,32.13523768776793,18.787424687686936,-7.729839751993737,-22.637793464552967,-16.66551326269089,-15.123461071370139,-23.83097100377809,-43.10345615954267,-44.242119166371864,-41.57236686564222,-40.89344581214752
41,6.128008582181573,9.47289249913703,15.3899912245531,25.588249895804836,19.42154264934272,13.641473930904292,4.329728620979822,-4.056544946416906,0.5108726261075165,5.002841228272984,10.78698212247669,12.737376902177013,2.4950582797445406,-3.560648910902668,-1.75910355944281,10.943844889415764,32.450571301634334,42.87901078697701,45.11119878227087,39.10419856276801,34.832170162207255,42.90572102314651,39.523403568800404,17.884226317258708,20.44746823506342,34.71999694105145,37.1409803538258,33.06745541371126,30.259075127429675,51.26309814640709,61.503645744095415,44.40495435268607,60.9212125065054,81.7667145446532,81.25237167203002,77.95409442091952,55.490165722399524,30.96542043751433,18.187367408604093,-8.563196898227872,-24.686069080611126,-19.383337675891276,-19.387752206667503,-29.166838885790412,-48.04670873738169,-49.685700107057585,-51.479259799915944,-48.657865902950256
42,5.465471954305759,7.2956543263823335,11.588667788706514,18.359729465762957,14.686929048990692,13.305706536082747,2.7410493792933206,-6.653008622066284,-2.6149256414585134,0.9623213669563144,4.991110574961409,3.1294128870411586,-9.42170773785222,-13.92867829341398,-10.416693335778223,3.325372107183071,25.636364403808624,36.50275177143241,39.55216300325862,34.80857635892745,31.112970656346015,39.437718000374076,35.717209665906296,13.77006405640715,17.30702124437324,32.53991569137612,39.961948071931666,39.41665103787187,33.98637812377781,53.1716832840273,62.17851756564814,43.844217776959894,59.32411938997657,79.41932855936811,78.24303304248977,74.08957512348127,51.33059801908132,27.303412314847186,14.229767533197334,-12.647293093029429,-27.96113632768476,-22.188036257642363,-21.978989933736433,-31.376045605103567,-50.64010374241049,-53.157906785855445,-56.18475197473724,-59.55643954349512
43,3.8196032760567227,3.1395986574158163,6.195439023320616,13.1732137321822,4.967410266726504,-0.37270210425323524,-8.728093761381249,-16.272255136313408,-10.641715996266361,-6.873491215249764,-4.430449257485383,-6.657192829392406,-18.309282952768967,-22.173274060532254,-17.583008555851187,-3.9064343475798484,18.669519627559566,30.310883563190387,33.114658275512305,29.382012219345082,27.06500754403946,35.7234919404358,31.93484621592709,9.849633794104532,14.05802612165398,30.072080608189864,37.86641261190393,37.82068679193769,32.53267360253723,52.00689340518868,61.23978910080052,42.88102433189415,59.06701359135828,77.27032542661715,74.30633078243103,68.11824340347331,43.58368845806046,21.147782648840042,9.457236194174886,-16.72192614178241,-32.0460061402775,-25.53550076816035,-25.065754810141577,-36.575016104955594,-56.39180816280985,-55.69934754408549,-57.680207880162726,-59.75918691325612
44,4.24169186345913,5.0648965367988525,9.81453336672184,17.80289124231472,11.12239323854215,6.6363481496287795,-1.9201924399300427,-9.298526785484624,-3.891623177189336,0.7090382036612524,6.190085421601024,7.916867145787005,-1.107938239256952,-5.887111251496791,-3.6239694084684553,8.385798288399926,29.725482647967688,41.69196936066755,45.80265678859295,41.88444447975304,38.12435668907035,47.255035575059026,43.805274275975485,20.138730535738297,23.860820714912258,39.81125644403982,52.974274525884425,56.94976492231466,48.70934205107656,66.02651609874803,73.56856716944365,54.1188446242578,69.12110739714916,90.06004708959335,89.58460745697172,86.92101543085685,60.21782817322365,27.400869895709672,13.011188880471074,-11.959084966799484,-26.567495170721763,-20.889368714727777,-21.427502988633353,-30.911371045137876,-48.65130638976404,-19.01933360684125,-3.8451296537407558,-21.91575001450444
45,4.869476300717541,7.276689693178026,13.005007757878406,21.432144801511306,15.880166286760018,11.891290136261755,3.105532593905181,-4.519382972410691,0.2405526632301358,4.665848371316487,10.403530165721616,12.786049220703156,3.7651157646217506,-2.0877797923456534,-0.643385560761822,11.256124190658726,32.49659940095061,43.554755725592884,46.055837712753835,41.31330309180211,37.95254643579593,46.82203068979539,43.20903474426769,19.66702970158547,21.723563446793285,36.259531270576026,43.401800644440144,43.145009104852456,37.85843725179048,57.44883238676768,67.04431949322674,49.217142505412255,65.11385584582993,84.91005862477628,83.9591037533963,81.18782578838557,61.17747178701393,39.48362402194799,18.043806813744762,-16.203084138297047,-29.731728694040974,-23.769342635228792,-23.04852283625841,-31.824495572486768,-49.820564067684685,-51.23152773005914,-56.616668090821065,-61.57852567708144
46,4.774767243996909,6.5506484601502635,11.491075768487274,18.676062220295467,13.07148149957088,10.0480062171933,1.3490919482707984,-6.73617755437654,-2.348760357627354,1.6644795848891238,5.4986440561335685,5.60594389413242,-3.7596569134407787,-8.535227147237709,-6.000536542472222,7.674388207531806,30.05961009543501,40.886115234199046,43.41518604963215,38.93586475628498,36.09301690629177,45.744611311699835,42.2744552406095,18.648957021014922,20.88198119369312,35.6124169658147,43.32447965056072,43.52860609073162,38.56291002368539,58.077476660042464,67.13921155365034,49.09838259936177,64.89203544584971,84.62716948628292,83.24783659895701,79.65766763227124,56.71247087743527,31.264823107916868,17.589494882364054,-9.029813485982935,-23.847585449869662,-18.835388124361828,-20.607440118704957,-31.01028488318024,-49.33449137383613,-50.77110347441646,-51.89937215125556,-51.789907441801
47,5.581747642086794,7.637912132222551,12.5788338461863,19.903228463735825,14.537896770457664,11.60762814299498,2.155934001436151,-6.537440139702875,-2.7829461034546252,0.5506894749517801,3.696998590728092,3.926941170618452,-5.499580687152211,-10.675109132810068,-8.172131307237171,6.136613698273535,29.08757989099264,39.34577388162361,41.53674147526383,37.25326900046265,35.09648123759393,45.07071048463385,41.100694219482634,17.243530581740366,19.578697954886678,34.29399567525835,41.464571540498014,41.26500772922785,36.21188498118341,55.41210906195346,64.36640152731859,46.47859478451142,61.95401029951175,81.38704820734971,80.02200745966043,76.5047160499159,53.58015486983778,28.47809672431639,14.830336353758673,-12.240355006094223,-27.88281687240446,-23.222913618252,-24.290732111420265,-34.25097450495613,-52.58630290145013,-23.22139357692801,-1.5199391540552938,-15.482974332060694
48,4.136883845591398,4.2730336562305276,8.477780491535722,15.595509595471505,8.557724836807314,4.302229269548487,-4.17036426663719,-11.495477134093335,-6.852388587789948,-3.5399616118961865,0.570883054998117,0.1679512246027257,-11.319078269257739,-16.356598373609632,-13.322424377150824,0.790944221989001,23.940856744676815,34.30367848345937,36.48451170637322,32.45265714945722,30.9872943917543,42.54479482565928,39.271145475395784,15.34776452044813,17.914328556113233,32.303589727989106,38.86322501575637,38.75083805590335,33.891778062755776,52.89377365310779,61.69343111467526,43.83625806168162,59.04176537096297,78.19383208539392,76.99793131951473,73.25023776559183,45.740941436299586,15.471257049859215,-5.4073668622377795,-36.21861372546176,-46.60905651961738,-38.46281700116082,-36.51333959168181,-43.140313850140835,-59.861959774183674,-59.296276922741,-56.17063267496517,-63.63900992905631
49,3.6123110631535993,2.272870330324431,4.969470754231324,11.13890542140333,4.408046165637171,0.7341255703097838,-7.943354579421375,-15.486543876515238,-10.903673144307929,-8.63485284932921,-6.511631834856081,-8.22941682071756,-20.058847366755746,-24.27208730311794,-20.21710755311998,-5.342448647059911,18.086067126112482,28.259064698427288,30.61844381764494,27.26473911539188,26.6499800722613,38.80072965709954,35.5268897091285,11.475440453888044,14.593807301364928,29.584889698050784,36.14509763638553,36.028554251160635,31.012949709257768,49.28217465399432,57.72649404682639,39.78093910728176,54.71406674879688,73.76567951956847,72.48189755022972,69.00607945888271,46.83971907127165,23.110099311537972,10.284278037498654,-17.56000025341121,-33.341182905449806,-5.030678617022325,11.722522146767371,-8.219394625091612,-35.64214834857164,-41.79099801987265,-47.49582109843476,-54.99196678435755
50,1.6942609055219726,-2.2919428149512817,-0.7049562989658407,4.238911397579292,-1.9604051347387186,-4.3070075192632515,-12.905508540812384,-20.421723261905818,-15.680403969726422,-13.997486545557942,-13.028826421044872,-17.229519533536724,-30.278343560315733,-32.8464248776172,-27.37569927911434,-11.289736968124984,12.659789419928085,22.912851609718548,26.533020951616336,24.801170361695736,24.97892422164306,38.12398048832013,35.595691071785126,11.759328033120722,15.315690190859378,31.43240430105042,38.8274863140029,39.59161172742415,35.8788909447621,56.23846103583152,66.32680113431863,54.9534714426073,74.98493681232125,91.17309691925342,87.49970810542564,81.91490241865161,57.19656109938761,30.922310705582955,16.677010827405873,-10.695402091698305,-26.200607173436907,-21.111912965718247,-21.89661281401304,-32.1183764619359,-51.039483678097994,-50.16256045801151,-48.54278387074537,-50.515769805682176
51,4.466137455921038,5.304523198507313,9.14774960355438,15.242117443269938,7.6183544609506475,3.2124358345857233,-4.4090428914813025,-10.737475539744082,-5.954998568992734,-3.008222851241814,1.460352344754273,1.7613816277105037,-8.795236126495539,-13.076099729012107,-10.545353601388012,3.313255407379307,25.87245190800119,36.12080228533958,40.10766373506326,37.263303417332715,35.313372092300135,47.34571382176832,44.040933520784414,18.67520788768318,21.01372077488098,36.24537323047486,43.06714145380299,43.53585770156255,39.7382966359296,57.94773414132017,65.89673039977293,48.34444099711533,63.93296688970787,83.2274312993666,82.50948210314563,79.39002443825756,56.14282064931803,30.71971248014433,16.621282560887295,-10.635390436683434,-26.27913557555126,-20.9467052793812,-18.823997819500743,-27.124483644693377,-46.62065772768797,-48.65987907782178,-54.68056955745174,-59.05784784668231
52,4.804998881731196,6.137767787392731,9.83523446830301,15.876256789213306,10.161726477134184,7.000373631506811,-1.2190146852018557,-8.015518161491256,-3.837806822865253,-1.2632678222155007,3.0598126376983075,3.0779342477666933,-8.077137493403402,-13.032446741170505,-10.99564716339243,3.671979836036922,26.79628714372324,36.38227090327494,39.360777287457466,35.714571897873185,33.73929805590966,45.84277165092387,42.88310818828258,17.76887934216117,20.46804606204994,35.961987964162205,42.41551783249032,42.71248315401936,38.98232678335134,56.93343153326009,64.88322611941932,47.68897075969127,63.39560006028611,82.6722486852707,81.88852862754494,78.38399955124807,54.817397460838116,29.463412428689917,15.260289279076433,-11.813814237397803,-26.911672227508724,-21.422808209353256,-21.27303870732251,-31.15367613653673,-50.057946295701214,-51.30019045648265,-51.44389010196923,-53.86350385169609
53,4.222196971611939,4.730339145359254,8.459220983858819,14.699516033044114,9.726955789131287,7.187704953745632,-1.2645629760077366,-8.04724634093484,-3.9046341065229138,-2.185262755081784,0.8853749115609939,-1.2917005599223934,-13.61794897971581,-17.510348053979822,-14.608668580996277,0.8869785139297353,24.566142728406717,33.69013155783753,36.66220967880409,33.67546101691543,31.51045227245761,43.70174758547904,41.15426722191241,16.270965028449993,19.539760411397186,35.313809434106396,41.84867781638682,42.46997285463483,39.05329614635893,57.291168071847636,65.87474606147258,45.118624156223255,57.75124269211773,78.35870827369294,78.28345711049808,75.81443040507538,53.12680317466666,28.21157704046765,14.71909547261456,-12.490532614241722,-27.552145322963376,-6.1287418882748295,5.8317436637160345,-10.983040120219762,-35.86412414106823,-40.80289936590359,-46.80136745140207,-54.01950465686786
54,3.7747605429597892,3.5713083276812987,6.822400209815582,11.988939965028997,4.23986697257932,0.43012397384707257,-6.758588563488161,-12.83472242023801,-8.147583161112431,-6.213447345198546,-3.6263504340347046,-4.812862487665873,-16.21289432088571,-20.370155731436334,-17.331511909965826,-1.622094541295473,22.39050249994994,31.7042835678765,34.90240391317198,32.16598341477992,29.89161323727824,41.89196908452542,39.22451773508901,14.472742774750845,18.08374526514129,33.89636223923957,40.24772822540174,40.96904341574586,37.4766428931313,53.9632562489205,58.55193819549969,43.72439874864209,63.35666322358894,81.01617562924027,78.50984155152359,75.42722810737831,52.8215696750596,27.568813211962606,14.016674474918146,-13.57514000303839,-29.37453626804897,-23.942290948883883,-24.67536386535673,-35.09425630686249,-53.830218094984005,-55.25982481951283,-56.828637052188725,-60.11603442556707
55,3.1487845566834505,1.5679613157981964,3.2548338456492947,7.227087158795198,-1.2710321884882259,-5.164021124251386,-11.830364808553906,-17.659992312565674,-12.687461181101744,-10.889512123903172,-8.636687355266995,-11.470914931554985,-24.278404013944517,-27.536737087684628,-23.47373984392092,-8.200929863730241,15.436921027986163,25.078334432559608,28.007608970043922,25.68285094040314,24.17230460539407,36.632924897047644,34.49489358779118,10.391064033107225,16.122718183321517,33.45588069262293,37.094024152749284,35.904224565893024,33.42892925203463,51.99135905811757,60.18236553518931,42.97527134672712,58.29507492672498,71.63551050812025,66.63604779573946,62.16310043254404,38.321986167112556,16.6866857271015,5.536847014311063,-20.625681529153145,-35.81645263391194,-30.553150182270205,-30.990229563220172,-40.29071789960474,-58.87238353202933,-59.36769373475894,-60.18882844448115,-63.26759426875914
56,2.1869184391671026,-1.0511931144480835,0.061804088877269514,3.3555186496759335,-4.498345298927682,-7.258421541055857,-14.518297063355368,-20.8599075000566,-16.01185847271093,-15.587881841429985,-14.89755496475647,-17.239357387185667,-29.784136162212896,-32.9755233031566,-28.32094081523128,-11.018500507467554,13.968885990652726,22.393075949407763,25.627816753806144,24.284294199315635,22.67359521650514,34.60876596517704,31.698459261511385,7.326466049191557,11.77254806634518,28.333791115761876,40.1783564057048,44.89457707565805,39.03535463947694,54.795514007007085,61.25234631943642,42.91120072032974,57.666727642499794,76.07709332323799,73.9066307380202,69.54100216887154,46.404919064929295,22.14436195055012,8.820689224718253,-19.607739184890903,-35.9235173510771,-30.430942719603053,-31.252048766563217,-41.60486193092936,-60.91401333369931,-61.47021365829638,-65.29723540400921,-66.82519553666775
57,2.5472584433338112,-0.4084318560041327,0.49203312983149416,3.731392377169806,-2.032240982124991,-3.372337508491496,-11.330778523882044,-17.54471080601921,-12.734367040554789,-11.620170625727141,-11.319116363098498,-13.231591770947592,-22.951406247468157,-25.41907656527242,-21.497809348486573,-4.13637598412129,21.514634272916084,31.342189762188248,35.79520886002194,33.83983064131117,30.912188442969935,42.97514268561335,40.50056083191114,15.52603087290218,19.728917248801455,36.7596445580048,43.495951891660006,44.46588079233343,41.62005449409298,59.23707516052711,66.95277606828057,49.7816035269084,65.91964527476897,84.9481734956103,83.20442493294415,79.37715888156855,55.6071911444659,29.901666988149373,16.122187142125433,-11.001708695174752,-26.806407861051504,-21.473897111067874,-21.778624276650476,-29.862938091106457,-46.86990770626402,-49.00416525954736,-52.84315622749569,-58.15841285743351
58,4.460455886689671,5.343896518540182,8.79188309245429,13.751627172237813,3.3349795258558546,-2.5497640916824404,-8.246615914531652,-13.256398957829973,-8.394532255332146,-6.904504875330318,-3.1715146654635746,-2.3300518380775617,-12.94362409465668,-16.96164946828241,-14.679283683827368,0.6966250455220244,24.769169130204542,33.49563058639171,36.57342950406158,33.928166467103885,30.73735420967841,42.566886821288364,40.174932477100285,15.440451340025136,19.882404030601048,36.94518124688022,43.552311052734694,44.51218682471126,41.7272047862855,59.30528480857339,66.9962493316129,49.86042311106335,65.76887127876145,89.16963736299383,90.47372096762075,89.76122534047529,68.31994981711938,38.88468600941278,21.86122991434407,-7.528612273350149,-23.87233775522219,-18.76821321396634,-13.18200358037489,-19.17640204296886,-41.387058433128814,-64.79037487406393,-82.70952834573528,-78.94385155347197
59,4.017496104808373,4.370762639434198,6.6671812936494295,9.444026748405568,1.5412379688488071,-1.1497828078608539,-7.5375593530905265,-13.356282584063768,-9.05637848141938,-8.38740046208332,-7.471475865010921,-8.990923068534936,-19.30774888089844,-22.15624561493578,-18.75869746829051,-2.1749140972162575,22.926503992345793,32.126519691719814,35.71762109696601,33.52662078803231,30.052303957141483,40.810898678811625,37.78816351871792,13.63810975567184,17.291025180950307,33.67882092100331,32.1293594804921,26.965072398308013,28.682119797881576,49.82076878293529,60.31492878827912,45.14953680274152,62.06501830844266,81.47615565214137,79.60759295525155,75.47207736446073,59.644646224913885,41.91656233686041,32.238095579982634,7.417605261302885,-12.451725524027179,-11.28796037951889,-15.009830458781796,-27.278062552810866,-47.04257998556781,-49.27082793921827,-54.57060754286997,-61.33009708896517
60,4.352859797429034,5.131197652334521,7.607314307190316,9.776293987103692,2.12464125636047,0.02876341712664865,-6.6800031233717245,-12.499389014946948,-8.191843635322265,-7.170230361851743,-6.755274666748942,-9.0632599340553,-19.212910931525435,-21.793734947746117,-18.203864358123887,-3.2777820561042894,20.55020167412658,30.486711552688757,33.84995362169431,31.822432368400467,29.35660737736028,39.835264568410594,36.4374968334437,12.695863673472495,18.123438066790158,35.31969112238062,41.951936610392686,42.994235207307334,40.23170285694357,58.991093269384294,67.58490586885235,50.40457035052135,65.75533396943005,83.4818170726013,80.57889604402055,76.14861651545048,52.938626376566916,28.151936669622632,14.297543022619303,-13.056938344641214,-28.67210082455307,-24.918544973576203,-26.96191291825392,-36.310938006921646,-53.96358446649985,-54.862655332866915,-57.01899893080594,-61.982898987360116
61,2.908799774751778,2.191291806739221,4.749807464379433,7.240570430058273,-2.574061978861727,-6.422998546888034,-12.035487440546484,-16.721757015727018,-11.601097682845884,-10.977502471412858,-9.149048568490702,-11.370064604364808,-23.164691649691857,-25.322382732682836,-21.209814619215734,-4.074673559146534,21.433283253933872,30.508074642024724,33.02313737145421,30.265506747004846,27.078534175933743,36.910908884647114,33.15520879731273,9.636200995046746,15.793848161688114,33.11993016811251,39.63966477788482,41.40591529362681,38.91456899155132,58.410618903315054,67.74547162304658,50.4529581641922,65.88248962267483,83.40591964213067,79.4885401305272,74.11461317769209,50.54391187576348,25.80057913810148,12.53180740953492,-14.436906296122253,-30.37073263235102,-27.165816314426028,-29.642117430949934,-39.03549286448256,-56.50871388267001,-77.52770278143109,-89.2638342514938,-90.01341071740978
62,2.7458866537932547,1.0515284405030783,1.8243823496079852,2.788581501686711,-7.675219356491638,-11.109653975040308,-15.904641950350547,-20.189860434268986,-14.6817041637692,-13.969963497564638,-13.733223532731575,-17.143106516038696,-28.617548049739597,-30.54612523372584,-25.77702996828485,-9.924119981806138,14.28363139868127,24.10588619652521,27.21880474620352,25.51399327086421,22.324719532360618,31.840499885620346,28.734886190880232,5.587228585769129,12.373822810702773,30.33441044213478,37.581310260601995,39.71046181408372,36.995143927025296,56.968058169773286,66.44041364107906,48.437258912153325,63.93007073737786,81.52591774189008,76.55546926999617,70.7816346543644,51.258258000662984,28.77297845913791,18.81842370440872,-5.521913884199378,-25.090281987754988,-24.435360961190387,-28.430169488510714,-38.739585523328074,-57.577992094893226,-76.32016287349045,-96.96254174436618,-101.45590919932144
63,1.052118743864952,-2.992442592073636,-3.9330228805845073,-4.374907774648974,-15.907142944236515,-19.621924149421858,-23.368026199095176,-27.014238393978903,-20.622794371895203,-19.367812333696104,-21.12062321652313,-26.932522575737476,-37.57269430191026,-37.213683890039775,-30.498137144947453,-12.98698252022498,12.10021248706455,23.147782540976824,28.01502365185382,28.305100779061156,25.875206464826267,36.09535976623111,33.526783887122846,10.196332667210472,17.37565090700551,36.50156445621971,44.33374234087099,46.143335986713694,43.702562229262696,63.46777988425736,72.75604031418392,54.923347916751865,70.96268472092939,89.44468068669292,85.43483980695358,80.1107236959507,56.2159647339366,33.175917620547935,23.801846970485837,-1.0264387539834452,-18.461063186925145,-43.573109561042685,-67.42873829833022,-66.85692431396191,-75.62932397180931,-69.74760036065706,-67.24473787075439,-66.7346751748232
64,3.789865517859512,4.681304952905391,7.300556666162204,11.320390427937578,7.191134567912674,5.957973742105425,-0.7337984143228002,-6.269846480282096,-2.533121596058013,-1.6407494560760991,-0.26616613210521023,-0.8344324677375194,-9.597832136624469,-12.598041792974291,-9.141464276698672,6.020803114585914,28.479856317205723,37.808663251701454,42.60098038788577,41.72399575333689,37.651173517397424,46.73231669075658,43.33107364728719,19.78863019004759,26.335999165127422,44.43137096888197,50.5199387533855,50.047157640924716,46.917829669926356,65.2164476119378,72.9374454226366,52.52091144554717,66.06796345109414,85.49633615700719,83.82326322455356,80.23406694263771,56.89863210511855,31.68026361570517,18.131578712606835,-8.09153248865648,-23.678083994080698,-19.946040350097153,-20.826260202146074,-29.907705430019377,-47.889303689499016,-48.31764271389989,-47.07417865597607,-48.3686640727909
65,4.421766450273861,5.799608635232282,9.844769770270323,15.420520485985424,10.174911027618206,8.08287681315009,1.6657813364644616,-3.435422454903429,0.3077459973401543,1.3207708629026036,4.196212108423751,5.2332970669950205,-4.147785729150415,-8.416668485622477,-5.356847577229572,10.194685879749478,32.32647393164333,40.327446335604144,44.77289885821054,43.34961126696117,38.20985258741358,46.252833577929465,42.354072629768986,18.410950709178252,25.237848847344974,43.92816260258236,49.83347657027743,49.641350504268765,47.258368533663614,65.97554928605868,78.6586305796139,74.83256746453932,95.40011440048569,107.09565970835234,100.55826970283657,92.86254220231757,65.90554064594518,38.64886805791681,23.41895139369534,-4.685069324979917,-21.82839529445007,-19.35223641267138,-20.079217301874944,-28.78067506171697,-47.93019560200079,-50.026012284975344,-52.492825589793696,-55.6841489813516
66,4.617547358225062,6.180098807394329,11.805278654301622,17.79636550464505,11.888294172979629,10.15337020495746,3.413368906507621,-2.0824434516682646,1.5332385704714275,3.14071613689335,7.408339784210782,6.817687539054941,-4.8704697536586865,-8.807767989649633,-5.475654060139185,9.82976665300994,32.40839066432706,41.09225329574588,44.85631657207136,42.47452244502102,35.827040508124234,43.57869672691097,41.380054355094146,17.99503779227326,25.054389596125034,44.27370128608218,50.4204855862988,50.857603593618315,48.76224613542817,66.9579626414477,74.74979898134217,58.24325773455827,74.19695781989918,92.0222047154287,89.44813363467304,84.55362694578156,60.25122558747017,34.95192754792415,20.988506032218055,-6.452200091690138,-22.66116661218488,-20.60304992877859,-24.020661451010668,-33.34551307001205,-51.16999085714621,-50.67879725772784,-50.18402788797443,-53.080766000944614
67,3.904730410643616,5.015771093356368,10.056582793125099,15.962461456886317,8.685822924736481,5.660422274177037,0.17687264895864896,-4.835115592094507,-0.6337222443326691,1.1281790497634065,4.051473415928906,2.6352352156117527,-8.387821618192461,-11.981074269821478,-8.046446998005521,7.371939070003191,29.759307330056735,38.584854631289225,41.543410591814805,39.308553097564385,32.31183506774392,39.06725701916693,37.57742293465739,14.783295798980596,21.532751472458678,41.049910059173996,49.106925150509156,50.73188875781704,48.01369878703958,66.71768249821625,74.93328262500346,57.416558060865675,73.22198485681221,90.96321158687323,86.81290670392634,81.24214537950795,57.90262178551963,33.05136219765603,19.53211376200421,-7.568333049730235,-24.526140687588786,-34.38893501794246,-46.07061401074944,-50.37703985055864,-64.6401145111943,-62.62753938629519,-59.78935637956647,-60.98816131496694
68,3.093075736098269,3.1589137322820218,7.5618434756692325,11.511296428652027,4.033759545719377,2.4254998084276846,-2.9851043304407474,-8.22661529181663,-3.3976985573166547,-1.215166658420395,0.7491131482897317,-2.6634201887893427,-14.029782059138626,-16.784492843870975,-11.518030089719115,4.2456653407670775,25.79758797867335,34.43024494226713,36.696175496094,36.6936069460601,31.68816926316551,38.265147992780044,36.53419831909119,13.36170946213986,20.669673632845942,39.95784773201289,48.0781317863331,50.79852970015711,47.770055645434255,66.82254744251318,76.47938917161835,66.27775048117242,86.91974291229491,100.612569692037,92.8160900459282,83.63481400423491,58.13936347536338,33.16948014167477,19.44821752628063,-7.739392938457463,-25.43019188930954,-23.15471589564866,-24.55723062243138,-34.49256002700944,-53.9840013778597,-54.62586439101276,-56.397701336727266,-60.99503030428898
69,3.4110454844205904,2.980411459256884,6.2490748610075055,10.113571510109507,1.1043382891985578,-2.4090259360430273,-7.474898012792921,-12.320913206969214,-7.615192140619518,-5.314176435823793,-4.324131446924199,-8.732932218762711,-19.999695970489302,-22.182294995903717,-16.372377253901767,1.175945055397797,24.027511583936633,31.64414020398345,33.777018940703876,32.56212040216331,25.99011357510491,34.860536645072315,35.39532990378811,12.815053464100648,21.08112612104285,41.599042746805225,48.75518433101088,50.21800129955092,48.20510816068211,66.56111178768032,74.70131447340131,57.83837056816734,75.36078618482986,96.71000386289384,94.78952156212455,82.94361187288781,54.391588332529025,31.85391488888511,19.97587116307653,-6.303808072953473,-22.51649120099157,-19.04485202099665,-19.466111812058177,-28.074712008112712,-47.11863776129327,-49.16125583146749,-48.43835242048803,-48.69810871219122
70,5.226932085642496,8.479143388191941,12.645781878884312,18.614702837700424,13.8258048666092,11.101930704129906,5.4792972561124715,0.40208260746720104,3.84235173118958,7.65629670509419,13.18348588290394,15.811232784920607,8.092201565093614,3.645878198962493,6.367500159198076,21.853938970315433,44.34178084796456,52.47695178335093,55.38989145251243,49.02081511326634,35.81051620606129,47.537652761490534,52.46131956455373,29.29012225316059,33.927429329948666,52.2258069818039,58.41050715337932,58.54615746676283,57.33228518624288,76.20616175038718,84.67865712909915,67.37180597234511,83.7882984944118,101.61000457328782,99.08407112169549,95.02500977105751,70.76658398965166,46.3985973526831,32.89803271023324,4.339373852270537,-13.587078382144693,-11.271833540255027,-11.298363374317974,-19.005727722201826,-38.192269646006025,-39.16140944508721,-35.39738574262743,-33.47239135293459
71,5.90487343337123,11.173221559970603,17.863876909259425,24.844853308634185,20.466675739193374,18.323667643223775,12.165819230996103,6.859107956461408,9.707784691097658,12.93510700518419,19.32669730249063,22.43659345493979,14.219792821220691,9.809941697930896,12.872918070421019,28.503615223120335,50.900996913800526,58.122469530124896,60.08393299377741,51.764941703112484,36.58527927615712,48.07977641765956,54.169955129002375,32.75750101247033,38.36060081002532,57.2731749473771,65.94750421207429,67.65392535314656,65.02023989858526,80.77218666622895,87.06773767198338,69.6106682264925,84.3805535451061,100.34612620606595,98.2110640458941,95.43515301929247,71.77140146262931,48.5474805791728,34.7452544434808,4.769592181559524,-13.541214834638492,-11.021376386962281,-10.534920485045319,-16.0104558042809,-33.460787301682,-34.66045981203435,-33.592234426774894,-38.38082745741284
72,7.06655157366307,13.500775309425327,21.187712503246118,29.147510077729095,22.85103040416315,18.518801438307854,12.283353130795735,6.992618418636818,9.01512009769912,13.064079349217614,19.965485614755384,21.537174951212535,12.393387637198956,7.857528555792306,10.188162205341692,25.211594202605163,48.50794800560189,56.434321181425815,58.34493057190336,48.2107800002143,31.50987797555908,42.27830275373999,48.75195426773493,28.986851575247133,35.51875312958983,54.292208946167094,59.70159489632836,59.92269874626505,59.70548474961554,74.41543700580492,80.04072819962977,65.59901930825532,81.77400884188205,98.49464962819644,97.75601007483772,95.49776085087268,71.53336157076272,49.00808353580907,36.34068446250184,6.799396786750709,-11.747046167670632,-8.560426726616669,-7.340082201846613,-11.30496392874507,-27.102805405906945,-72.91651358755983,-105.64857319693616,-87.14042762439551
73,7.68311971215829,15.133989603807297,23.22560094539711,31.54279641922965,24.400674799595535,18.917469469275566,12.800636414019099,7.823144919146079,9.812934131395812,14.233499801825076,21.842781797970453,23.106186034055334,13.732072400225832,9.627784300386773,11.632986852852644,23.70306573276196,45.711309737512465,55.50159260633228,58.50465168351407,47.90425998810691,31.552640930031128,42.5032958183203,48.239751934878704,28.26618093109564,35.60521711973264,54.57592516345035,59.516311853274004,59.88757361289735,59.227429451881235,73.07265846334917,78.40099391492957,64.64733334876527,81.12607539668329,102.86043170872301,105.03014694005753,104.77002165425088,81.85659826046106,53.87223278379607,45.15274118421554,19.655218271355867,-3.1365603568063065,-3.28225065793328,-3.7486323905434835,-10.79666193241757,-30.076982322269366,-44.65791390829964,-60.59395923417403,-62.33405003554823
74,7.817208033671982,15.252887626862979,24.50398999740667,32.919074520370486,27.58280475617046,23.98102039609031,15.58717860611529,8.796547579012813,10.008394451356518,13.40871112422783,20.002434894131696,20.364965205315354,10.269206961548985,6.531499575124971,8.398041140472671,20.289754152636814,42.830759756552126,53.25605847588984,56.19177554494421,45.16363013000716,30.584563675521732,41.52403264941617,46.24081789899393,27.27649720692826,33.76554301406148,52.33557135829606,54.21991869576988,52.05134818567221,53.01229129181483,68.17480733876569,74.48004002230402,60.34255794554143,76.54044502877149,94.52703582603301,92.81501537262096,88.45307239681873,72.48528732442585,57.9423895432082,52.6044324877993,27.875478240740208,4.697406342317277,1.8793692627346346,-3.261953409641579,-12.378173914230008,-31.455734293588403,-33.7767008797659,-32.606666622754915,-33.576599078081486
75,7.479875006685622,14.285920549329884,21.82138662113247,29.264287312070902,24.820066413833132,21.60741482234576,12.656786924386843,4.7137068779828155,5.750417344254981,9.913542505541617,14.825245783961087,11.562876436885587,0.6695906474809608,-0.8158917328221644,2.734502189194293,15.961709508658506,40.12896601246558,51.49549668019167,54.04917238947286,41.45487114835183,26.376527944968664,37.91836713341759,44.300378026601095,27.04584197949194,34.82933970238939,54.65223331646004,59.16643408099999,57.65617574563517,56.36641048059254,70.43187233511168,76.1545986918507,60.87423945606493,76.04435723550532,94.35539899126114,92.84468155643711,88.36825669513365,66.14651531986522,46.41326555609126,34.16723932199784,3.8680069600396862,-12.896329273120973,-8.302493701492484,-8.169407713396927,-14.471539272393452,-32.09248004034046,-35.660098954171495,-36.844281018980695,-35.85731843087686
76,9.347884666906602,19.386177366839885,29.11192071257282,37.24571283702654,30.268873095795772,25.467234335618457,18.039201825965783,11.437706285023054,13.316611396119796,19.41869291622595,27.585328871758787,27.852671007152374,19.551218958051546,17.988878788301793,20.4039802614094,34.03743707867797,57.90645552486455,68.7439845574998,72.61583204861694,60.47796774650065,45.10643999454256,57.987543496214144,64.81597033322969,45.14051947484539,49.56884204013011,67.64012458088146,72.02416120790072,70.22261056075904,68.35008887972909,83.888141705938,91.11580513965605,75.08576216126706,89.54202243978733,106.72982742256725,105.14515214922903,102.14785403670803,79.56817589090437,57.62495693898946,43.704534512276375,13.487365003900763,-2.9503318264514684,2.6809242150305774,4.643451744210613,-1.326954020136422,-18.94086678173872,-37.114492985395025,-49.484928478477556,-50.311676658685954
77,10.968456066674413,25.00402121054941,36.39839690626988,44.58299337008445,41.8154702239103,40.08169530781839,31.59463605464408,24.144641055830842,25.52807252866871,32.3134831530449,41.996804074404835,44.71090374314076,37.68446095759768,34.12239109782972,35.48466563581001,48.61962420283359,70.63478655023205,80.42190817413179,82.37606804820275,68.9134731136589,54.00428056118974,66.26257985334205,72.81125366336626,53.217735264932344,55.97329119913006,68.700925344181,73.75056040610593,78.14712546861158,76.23182193646068,92.53311574010274,100.86267352112063,83.33278921831317,92.3874379868042,100.58560552308519,94.09789117052406,92.68607969114109,74.65633165720598,57.73591098833086,49.50253891497309,22.514373668393233,6.587885773198465,7.870380882220159,5.624681787380922,0.11538150344397113,-16.70959896315209,-15.819528892679614,-13.687096447539652,-15.616274613094472
78,12.470992865633821,28.49153387161692,42.672556373641356,54.358198887692254,55.017492665885726,54.10998393950408,42.949186576346285,33.804799348585775,34.18670559405482,39.53241766278904,46.89664779868492,49.61361186870235,43.84025687411122,39.60886684534872,41.150840058007056,54.65049372642096,75.75067153628166,84.49196083675464,85.78579508700957,71.23918989832315,54.920531530319806,66.05917586909251,72.86567106913171,54.502483253325906,57.725735112680596,70.23423511291018,72.8976856449546,76.22297616790046,74.98860992914788,91.89854970218715,100.78118898308175,83.50886534659963,90.45715026511087,93.91863301575445,84.69642724955257,84.34610808665951,69.29130202133209,51.39065808860077,41.723658525768,15.911628710300986,2.341077977774921,3.7646410655267277,1.30390225143588,-1.977163390560786,-17.529543075423415,-18.02589727016546,-14.729396553532057,-13.874476032719977
79,12.175172621132306,28.385066181024285,43.930019130484595,57.01321049655116,52.35268940541573,47.540090968123735,39.36604020831709,31.740157755823702,33.30915692505225,39.81862615121663,48.788564129082914,50.79046568844324,43.754169546388106,39.63696964691107,40.82105069470056,53.77044819393362,74.25917558075659,83.33466360182891,83.88760116106424,68.57271380752458,51.821149317327404,62.15953912103784,69.45011876490067,52.278505069174045,55.36957477336318,67.67940186164115,70.40562809533158,73.96411597399653,73.9557773184066,88.49259803277474,96.26132336283078,86.89595786827356,98.26255536646563,98.55783674616808,86.28209657600848,83.35726524467854,67.958824163334,50.035722123771734,39.4594530436241,13.807333965458682,-0.18019910241236659,5.696350764127648,7.510114590585943,2.524706428999176,-14.552559269310008,-17.119487356007593,-16.08849545147129,-15.322681905050896
80,11.74179147276422,27.13977804284456,42.31345672417818,54.82244390462061,53.66367220781834,52.373614507414985,43.053221598289085,34.848861560934374,35.82328590356452,40.53647632787941,47.23854771755742,45.40982283944578,35.87336324849656,32.30709451199175,33.51787593689503,45.36775896070135,66.22190520323822,76.56159176527234,77.98218294586762,63.734721869023,47.86536163984327,58.90314982562096,66.28138990299107,50.16315781402564,53.3966422572701,63.85691402832288,65.16122957277709,68.16818725676026,68.6952534636536,81.04908522235871,86.48038386894314,73.24688344572594,82.85643855213857,88.7345046005306,81.35585665206051,80.46251382753023,64.65327941003092,47.249299702024466,38.17088525552456,13.050945874782105,-0.6326457966097223,4.021409749978691,4.332118388080399,-0.430206117075147,-16.964142773186122,-18.860224114979673,-15.4055889297833,-12.670168341269793
81,12.408932839809058,27.6918228959491,43.40758041032292,56.738931122754394,53.45388110903965,50.651847650065335,41.294479917587,33.23424461628591,34.02272554544515,37.860495420693496,43.43752371641977,41.35817866412441,32.29100793138093,29.72869038681173,30.64245260992273,41.43697997779013,62.001151110132334,71.86918155915615,73.56890200459341,59.07187874556741,46.15113362075763,58.006385242965756,62.81180505502346,46.71940859904463,51.39014738840841,62.028676457846366,60.6598571933348,63.93370544132452,66.44399699576992,78.86176141751476,84.66595128553628,72.70729590999821,83.67775216903672,92.03660571752116,85.8340643282123,83.59214914068673,66.28627501758191,47.92743117043708,38.63169430958894,13.622821017201312,0.23475500397234939,-7.045791132815938,-11.27532300715482,-7.089290380190831,-21.346642206328227,-22.986965944581538,-20.62199893759594,-18.251411937024432
82,11.82257466060142,26.479282413681716,41.99362941451333,56.33706958815185,52.62095828687456,48.9138322961541,41.10618737790216,34.81727681866181,35.77960705981584,38.25806435542696,46.11328793319899,47.09285987587345,38.37325089787797,35.71137146961016,35.14675717819452,45.50109704302417,67.11678514499026,78.03347355072927,81.14138841999825,66.96080915296623,53.18647294766058,64.17278195248966,68.13462742352591,51.326930849249926,57.42079141003279,70.3849729606365,68.89939603029963,72.00264439244751,75.5372397324432,88.13591208982314,93.3953194946395,85.88341499455666,101.85036474940605,110.06460103478788,102.59616613182563,98.73294889548829,79.87897968173586,58.88498236489188,47.8516854157672,23.478807197063674,8.832800492431089,14.60797515204623,17.635022553760017,14.887213261056823,0.09824446983274271,-3.477215999845378,-0.4265266741486438,2.073173842004997
83,13.89908064057535,32.25188464481965,49.88334643117527,65.76016043383471,65.17752133133379,63.37468901098253,55.374970060447104,49.29784639384451,49.48580228755942,49.89463779619511,58.6938261351568,61.936787855225674,53.01606591374514,48.88568208797325,46.181783857142186,56.150025978193746,77.11487979441954,86.93595495621364,89.54320402607529,74.03408511151017,59.11253546546016,70.08002195381584,74.42698841534194,57.18591369554784,62.696108358922416,74.41995231297844,71.8160928590522,74.08411606021393,77.46824976295767,90.38845303597088,95.34049808003483,78.70288227881701,87.71874553404454,95.9346840478334,89.72196576029972,97.29516422523692,85.71537958080151,62.427134066564975,51.21238563930038,28.682831305844765,13.81622793973061,18.635077271690296,12.25869044266425,0.3171314560526435,-12.33913065903496,-12.316565778075784,-6.7640480859432355,-2.784498820136319
84,14.34734346233077,33.83809805875673,53.708327982733366,70.99523150539875,67.73981664355206,64.26079906538195,57.53717540966802,51.915745681332176,51.78259613647673,52.325181993194136,62.283151082176815,66.12125226178713,56.921498706853775,51.97118892364518,48.3070859750332,56.249311602037416,76.26963817446442,86.10702562022351,87.9323768293165,72.90607681712993,58.132420658515976,68.84021545485089,73.79196464290493,57.03488693393973,63.62534882777936,76.1904670131253,75.06496668909104,78.75095114960676,81.59260480038704,94.74157886532032,101.0251786993374,89.47549358155662,100.8057659451028,109.95680876508864,102.61274440594624,98.28517484832585,79.74856214148083,57.96022936533362,47.41292826566489,25.578551389583875,11.879770361089244,16.53198364497797,18.32569993754403,13.435206650925355,-2.353256263993093,-5.722202541462937,-3.0584846882712773,-2.0579823365524454
85,14.303825550848652,33.588151744282044,52.83108794083695,69.31700238823831,67.23361583388362,65.1101667704064,57.88505368070032,51.859324040922125,51.89784708738889,51.392072378156456,58.41488719876851,61.82524350809073,54.6514815548466,50.263189003332194,46.89150570098967,55.730327311804444,76.00652889136845,85.35915966594536,85.61517430460157,70.4254203780973,57.136077219975974,67.79568418939908,72.18772224904393,55.95096667546282,62.016736718310845,73.30179509378493,62.66817957453423,59.64183191672287,67.14152949611031,85.12846821986308,95.10561539533109,85.24319127288972,97.22358933013933,106.60747333606477,99.44125291281657,94.98706990628366,77.04376820480537,55.87956881601305,46.19714970048812,25.77097483049825,12.281404571540998,17.539729349243967,20.15416073334893,17.248984323642883,3.203480009491525,-0.36322422634815243,-1.3735905887639035,-4.547608419341072
86,13.915746573155317,32.85459647688444,51.149908476212914,65.04850210737872,59.51375423775553,56.64279886906364,51.45532932863921,46.747371779919575,47.90871195876316,47.0519277289891,52.584483017239535,54.209490932943886,46.683559548146576,43.865963082963496,41.88989110034974,51.9591361208238,72.35472781271642,81.37191501928261,82.08623045214358,68.94574763529847,59.95621362511118,71.69072532503628,73.64945395370206,56.86322665761481,61.587948601183285,71.59573226217208,70.5239229754466,74.36905526130533,77.4779452791616,93.1676613124187,101.32409177359902,88.26371887495006,97.20888335278202,107.73021379108009,100.96559430496087,97.20780722599189,81.32457260994452,59.1505732804815,48.243416839574735,26.497035807679463,12.716777333414461,16.60261741533155,17.490274689342996,11.74921038470388,-4.646262336155836,-7.838818015208056,-11.707103847853162,-16.31667170011208
87,13.078685843951463,30.322647366492195,48.795307313497865,62.69570466427619,54.73081990854288,50.55734241155813,45.43441011986378,40.535836746101566,42.32496751508898,42.143173925949604,47.039791208119574,46.65761257680147,38.17377617879647,36.184105818652,35.647379115637925,46.45647471896967,66.54291992983376,74.91704399767578,74.58822883061801,61.87448182729952,53.786511760199254,65.40492683791999,67.57402887227286,51.44965196358855,57.0727958589997,67.96885176242529,67.01343576445244,70.51865955159963,73.32846316737053,88.75812438541723,96.79771407172385,83.94371781661972,92.96113383470632,100.0873192137623,89.79349856501644,82.39931379068811,67.55134267710181,51.3544606895973,36.33653927397265,11.215923565186278,1.7814385337934713,8.487532165608506,9.547244125831657,4.109152877766501,-11.230368126558357,-50.196247949418336,-79.15344022569931,-66.20029609596935
88,11.826598325734349,26.313703776892535,42.16050788853207,54.72920935755229,52.74682491054732,53.63664469459118,46.20329907904872,39.84017403787879,41.14022968864523,38.75303891829391,40.29397220405704,37.70593059093172,28.445888891236436,26.82666724835392,27.17169636879951,38.65555259627237,58.93961109878988,67.11920590137181,66.60552876056259,53.887199882432206,46.557558507562646,59.56945438146595,62.10171066512059,46.07804240655957,52.291430777046735,63.68046170630841,63.8348357357486,67.63064650924288,69.58843040476646,85.61561998181271,94.15390649515712,80.53588046143746,89.03507812158713,96.36834397128311,86.02719729017143,79.17387887436522,64.7575202580402,46.74423103419492,43.38731863466542,27.876287562414653,12.947060611710912,14.320904218866248,12.972778747634255,7.1072763591620305,-10.672795170461605,-14.690110624713745,-14.122789847575454,-15.387821130924985
89,10.15043882348711,22.509131790574155,38.2912156606481,50.936662961649255,45.54263005619011,44.334680414687526,38.89782631294057,34.051103592934716,36.4865205003597,36.39742790992149,42.06584277848158,43.5406353910329,36.206809937361314,34.86551104943689,34.26832192792286,45.67026576839725,66.19878453391435,75.10708262252051,76.51485171963233,63.93932090518399,56.95754677046169,72.41612810681933,75.61456772282719,57.76687077973003,62.632770310963615,74.85566713050454,74.65681079899142,77.33698840296546,80.0276419367654,96.19607448613867,104.52127137441158,90.59436386425256,100.31696269807117,109.07066250337354,100.10499882592894,94.83668885770386,77.4357454428227,55.60176235375743,45.26855600430336,25.69066546508471,14.416415624460777,19.75704648949493,21.63046827883892,16.415754556819373,-0.3276820778345426,-5.227463229441202,-7.374841619739973,-8.70523844434971
90,13.397525146938198,31.276465752258957,50.07124435688443,64.82810572199178,60.64070511734075,59.10409483329488,53.56105176257491,48.92753905201085,50.3936567473935,50.48091407800617,56.711363257393245,59.94523669030552,54.08657882743908,50.77173037935337,47.795692701208324,57.61278347336405,77.75360346102129,85.70979024085521,85.7945806104306,71.5434039105399,63.40340145682808,78.80216654322773,81.5305323112348,62.6771146390396,66.90904133602105,79.05876176625831,78.33502090507417,80.63385221247661,83.36541883541723,98.94175869995297,106.93721178955758,93.48837307969694,103.25958030213371,111.84019609217924,103.49709113804795,98.56744198980995,80.50026706791549,58.61734418822989,48.92468227714677,29.384749771899735,18.359823946072126,25.67276926454861,34.302728661735614,32.49273446762133,12.567584371489112,-38.87968590108281,-64.55995728308977,-39.94238052946749
91,13.639806107158186,32.30349038204682,52.48363047015175,69.16962380758409,65.0539066552995,62.581141658311346,56.973390487301444,51.52343771061645,52.43558305152663,52.154291376474724,59.77746210219445,63.8865841461065,56.765437667127024,53.27573666766011,50.06861171770103,59.27691321725577,78.5907134014997,85.58934594647454,85.50099062786637,71.82505636419559,65.7840055499617,82.45534963579004,84.41010124549916,64.72771629600405,67.41385038686751,78.48400009317979,77.29526396995857,79.12595988346287,81.8432786098056,98.38120715337438,106.88818204053356,92.6241100331669,101.73272707086946,110.23794295008697,101.58805298416904,96.55189593134669,86.5682111721588,72.03784745711512,72.29399365835297,58.12362136058256,38.5586434289166,36.45979680659244,32.49255556874387,25.054544964495147,6.850701945808129,3.981066844381264,8.432127182306854,10.206219533994108
92,13.96331711759094,32.54371717665127,52.781281244816114,69.80665293460214,63.39739453319105,58.861896364874326,53.55367151750443,48.96859120940375,50.55040549614169,50.42804508228746,56.802712384047915,59.46473778404731,52.340754384445226,48.99469065934616,46.09389840350705,56.810509396551616,77.25933753275685,84.246132433322,83.877377381129,69.6936960669293,64.64874391697772,82.53957968434425,84.5948534998915,64.9006520362401,67.18487751746146,77.51300700030392,75.99560423052476,77.74939212845541,80.57417936025223,97.63400680813771,106.3994415920015,91.88748969577533,100.60282745991572,108.84271194550571,100.26864066871502,95.09930500719229,77.48359503326164,56.56773635873122,47.0783879403358,27.493750438728227,16.727981917397386,-7.332867465020822,-27.721445551010852,-19.344618635452083,-25.794665157894418,-21.185422261079054,-8.867357881687255,-0.7903864947114938
93,12.80195244710382,30.062303038760454,49.325737168841925,65.43483272557154,61.64245835019635,59.588486692676184,53.56901117236929,48.27144074277876,49.40084499999017,48.702435315636095,55.18940457292473,57.60772363003105,49.40741813115053,45.88097094469451,43.2128304461423,53.57612291809356,73.45843375507796,79.90844728419377,79.03082012483635,65.33376476632857,61.94677455209987,81.12535713640494,83.01637835071591,63.10918000116374,65.28975533180483,75.00823735956749,73.24500733716198,74.91645927431995,77.44585014794531,93.87413919347784,106.26936082300381,101.0269560604471,112.55492358685002,116.86937830906248,105.51699007280482,98.35095236580904,79.26404592527304,57.034498999648065,46.27614422518825,24.989808966250763,13.603366259572548,19.35222519196234,20.15140087803455,14.477381842392811,-2.077009552018633,-4.874134226705577,0.24503165308986885,-8.902545178194245
94,12.57397132537387,28.797183802612295,47.739263367823796,63.98233625537603,60.12352435256583,57.828775405009175,50.906467112419676,44.947920735819096,45.98450903907591,44.86361392261893,49.67795558490418,50.28193498326535,41.35796514090968,38.30620515758569,36.59180725688438,46.52098408332662,65.72571441674376,72.21155749842922,71.44698968580761,58.31544218197549,55.80096239683879,75.57508070224314,77.88752342035541,58.87542244038279,61.46568679238174,71.20073383835592,69.47797454921017,71.24101857009244,73.85992842694854,91.14987072671748,100.12170737797659,85.24718453621594,93.73988789986942,101.95500265382196,93.03014545184813,86.7459640180304,68.91333265638391,48.9242152934069,39.72950365187215,19.301098230036565,8.040895377651944,14.900148277893436,16.247503982021307,10.024341967796744,-6.294466659551481,-9.539766548485108,-8.220973765740165,-9.111685380204998
95,11.567893900400893,25.977656503261276,41.85082255794998,55.56870820444004,51.830191448965316,50.29807970802496,43.93154947670334,38.06168579253303,39.552278186541976,38.434704449404,41.27946256088283,39.630913072430985,30.28188337525886,28.464917204377855,28.26585713051678,40.03472976510096,60.529796033487074,66.81923758120844,66.17724988443071,53.97610168762905,52.20371863436311,71.00889328278289,72.40181512585082,53.779497591099314,56.86265010449547,67.60664982007259,66.66051132654985,68.28046760233423,70.61184421087204,87.82521593886305,96.98473439408491,82.23763475324404,91.01300925225303,99.89284869766482,90.93496242318705,84.91352589959337,67.83418559216484,47.76843342360086,38.21335699292333,17.937581019266354,7.589123335006702,2.830291191289776,-4.905227423501021,-5.595145882205782,-17.554464364100255,-16.144828797343244,-11.293978356361551,-9.563009915622924
96,12.696813579879107,28.95791093301116,46.58877975515935,61.51408252437319,55.417237415280276,52.06440896510199,47.052926696938414,42.572706238993625,44.66147477236824,44.65788063355696,51.6991012799422,55.786670400150676,49.18086894813473,46.28623500746396,43.95284701394035,53.936372237497935,72.86079369385112,79.48002999436706,79.70728927885133,66.51745357788151,63.10079877437244,81.68494846699839,83.27430564153369,63.50512081968463,65.83849177143547,77.02087801803206,76.38415229811633,77.40606272996223,79.54621160812204,97.33511031772913,108.34956167166928,99.93397086874161,112.02239942869215,117.56475767152625,106.1733621483731,99.22165176453106,80.56386778574974,57.680909358706316,47.029619379495344,27.766797787273877,16.822597657240063,25.413327388931542,29.925188363635115,24.422184041685007,7.695605937643659,4.427179976050752,10.72801047236983,13.533767475157195
97,12.891662108992783,30.82606019425787,51.44447192312744,67.40792659566411,67.01658384392681,68.2098102677937,60.39072347220721,53.941922982136425,54.168339888593984,52.8226296779369,58.46532328340511,60.91156899222867,53.687902544953474,50.40106042281873,47.604143590849205,57.78545437432773,76.5555008022443,82.43610620364707,82.69389774123385,69.12768943978766,64.70792930465691,82.49358955239236,83.88728704360405,64.24102211039262,66.44044437792806,77.54048292113339,76.95976105706099,77.41065037107526,78.9028792233661,96.01305737129928,104.84010974450719,88.1142516504129,95.35076985182164,101.44449303951984,90.82764263150204,85.38893733273123,67.93130901527616,48.28758172249934,40.28182597056016,23.09600981907888,14.307341435416737,22.733405782636318,25.62476429035889,17.237894822742266,-1.32438876754596,-2.6855967953820157,3.0128501015932225,5.7374744882782975
98,13.650949759823055,31.807100086109333,52.437680921968784,70.02963170725238,69.90565228892105,69.96076919555131,61.45882264529113,54.03600245380455,53.50386204349574,51.53243272573304,56.091330384534736,57.428179163903046,49.710697916546,46.50440083186899,44.1110900893199,54.82853465998183,73.85224999490073,79.32162782965969,78.9359063454191,65.44604411669012,62.020607467608315,80.87781788779,83.0448991572785,63.68812744383162,65.64354905774906,76.52462597670491,83.47487526110159,89.56924352810238,87.45936603542023,102.36779414551084,109.76925867316213,93.47664548648048,100.93453201361449,111.17353475027656,103.05128486109243,90.36970144016357,68.05098384401394,48.052136337065335,39.465102305781556,21.973203152279602,13.018545719092568,21.222921548061,25.034350504748033,19.58838877083969,2.8715646976704177,-1.296472880208797,0.8581013363879193,0.8390389296668719
99,12.173370485312688,28.97546049007961,48.72645715084546,64.76827559953087,62.89799246985172,62.520122434102106,55.524063539716586,49.06396659036139,49.00330639170443,47.85824481754786,53.66646988219904,54.66024144858342,45.96966406454367,42.78506271694045,40.66232579071209,50.987976468626684,69.99852562335498,75.68586883654444,75.37803695789215,62.785597267372026,60.565118437980644,80.42247851224482,82.47060400488641,62.496753179686266,63.769209850560635,74.0063095315757,71.68617421759224,71.11459497007421,73.33626715084175,92.09503483059478,102.15603938115332,87.1327277024701,95.00332445455356,102.9788822072871,93.84982877421172,88.16860801843978,71.01740252509693,50.10209090491098,40.824111897716925,22.259618836791702,12.074802748723213,18.512095548806435,20.267910003895707,14.337999164643229,-1.6987126200159395,-4.660306396179911,-0.14381298469360937,2.5112695790464405
100,11.770276064240994,27.417357355542205,46.82886582380151,63.182492313162456,60.11153285244327,58.617282672995955,51.46654013153975,45.016679711747486,45.137314739676974,43.05504940921832,46.6489798858371,47.080540614711914,38.88359535312694,35.94532077763965,34.55757362782097,45.036248084584756,64.00075048640525,69.64168956305716,68.74698282020285,56.618192311558346,55.774564755679364,76.28654832946063,78.20920989028168,58.133955767147135,59.717748893512805,70.12316461496603,69.47530282169487,70.15326183738604,71.75805457416723,89.98238978908924,99.73363802589763,84.59335177426082,92.23774246224272,99.82418523095308,90.27813441624741,83.98664585430444,66.63953933876655,46.37820059450449,37.26264383037147,18.332287570895026,7.8859703304176225,15.477700511950758,18.42794932300651,9.781708207244106,-8.812053428995991,-14.462471057120165,-16.668096574665093,-15.604806632868852
101,11.079466514447015,25.16534831236897,42.73107962974505,56.81512316306215,50.149207945769525,47.15748034296611,41.522937203758254,36.40452258841162,37.70215318417249,35.45756121998862,39.24991304494041,38.94547425549496,29.49824973688255,27.67341069025301,27.63616826895664,38.519800371223674,57.487620774484306,63.125371172442925,62.641898535739884,51.099868048801696,49.87535532510479,68.92279722927603,70.40182306172724,51.21565325331509,53.563054676510404,64.76137214160642,64.52553342359643,65.37662609808969,67.01094427085947,85.61061410461645,95.73501283222718,80.32095244567023,87.5626871497491,95.7037700243863,86.42375466436083,82.46174842542918,67.12598964379411,45.78093870465107,35.576105516918076,15.130944600330821,4.037396987203561,10.331778185456624,11.320859701133,5.125521846925434,-10.530465768697226,-3.0543078011559857,22.63463845171166,28.744529698066707
102,10.03455526899993,22.31209014969969,39.05919826644286,53.1198837340355,52.71913862446029,54.43776157074456,46.104926273115744,39.03628007249739,39.14403631867879,36.49803338444153,39.38652746484301,38.34429683228921,29.69388789063852,28.36557017256085,28.61024131275662,40.23694914803822,59.12480379036822,64.92668456406612,65.59195713319818,55.004970682541554,53.43444249700344,72.69609316992667,74.97670750081409,55.57975854223046,58.490389719327545,71.0615643498042,74.93080668501301,78.862022781076,79.56622920796802,97.25553791472198,106.54937165672546,90.25591529370925,98.23731843825809,106.89863708223189,97.84178675964081,92.3488333502275,66.61339251321495,36.00106227186445,29.750726556426986,14.632467946984281,5.761483102688981,15.68906153285592,19.803778128154423,14.973283014711992,-0.3552452646165163,-1.7235652432103095,2.257794659257867,4.505051425860875
103,13.405400725313177,31.26146059486979,49.70436509629763,64.43307731704675,59.8491614690521,57.346253847703395,51.615481949521964,46.65954783817117,47.42218406121023,46.269733835614666,52.28930056338727,56.26633828966573,50.11255523102921,46.87515441619556,44.93797834012012,54.87540781040704,72.16651680332994,76.34393233733189,75.49063691779808,63.806633149115235,61.42610865488028,79.35938060299537,80.58326116135571,60.63470785682841,62.282201662405626,73.34194315218748,73.78161486019788,75.4165111432482,77.1145638081322,95.69477264138276,106.02342945786128,90.68056914290027,99.49688892806427,108.47529516655457,99.92004474187837,95.37533166601881,77.66109556396127,54.818391158535015,45.07931010565984,27.17969467704207,17.583704476813566,27.380516011816624,44.74969964529511,47.018532934868446,23.73530054560636,15.903043002067243,15.896295977290675,14.610967558851423
104,13.103754004661976,31.15700194770837,51.1595216782448,67.60976467762401,67.89790640382859,68.23755449540623,60.11180937743889,53.188631091321014,52.29493917671528,50.233959161923494,55.441318819717154,57.668493142646355,50.19727294770853,46.719419335302334,44.61168910210627,54.108065659654244,71.4488113719148,76.08846538672736,75.10362648146568,62.85006932475178,59.82361322920142,78.09733616668849,80.28667174496434,60.48120946481627,61.849589780887506,72.4453113640982,72.25087635355477,73.78171505360788,75.84591691842564,94.22434355900256,104.23086089363105,89.13473363797571,97.71127086965994,106.57147605875832,98.28071183395957,94.1668024517302,76.71598573683843,53.85817531671201,43.03261379167735,24.12637427926291,14.23138839117751,22.653188128820002,25.8202495330385,18.7691532584385,2.6819994921487322,-0.6030354969022831,-1.5866982331032575,-3.4387169642716753
105,12.765784607107523,30.04404820638949,49.29014443062617,64.34060784338544,61.63788704042693,60.99832953189114,54.35482416221482,48.45784109114592,48.261758065670485,46.57382461382243,53.0090517426325,55.96526879803215,47.94402064900238,44.54077465507871,42.56260875214363,52.45302000666048,70.27072886194294,74.32020681350689,73.24897970783942,61.00114115299464,57.77391770221838,76.29781208202388,78.59301062580039,58.95936539422376,60.65330498669138,71.18617578848047,70.82258465156261,72.54623650237082,74.78713769684524,92.81146082368736,102.48864305648769,87.68503305142097,96.44157325525103,105.37693607407772,97.28253020335723,92.81512329343786,74.35519389080945,50.2047906090433,36.70960263639519,15.931871803025347,7.170940737834227,16.71244916205494,20.149022431249264,13.883472835373363,-1.3459411510380228,4.446658472997374,1.905596326613317,-8.548797897594923
106,13.03142499506916,29.887420053584865,50.21227450242189,67.19045722071203,63.305059073313814,60.671867018707445,53.057295906212204,46.56819317260076,45.75735638080408,43.65144426570837,48.842245191971095,51.97851503376454,44.70628862770829,40.69487754848453,38.39637430703704,47.37622567123255,64.7878792861655,68.86434005809113,67.4426763796205,55.090810405467515,52.577265605317436,71.85359986579955,74.54442368215288,55.402452320166745,57.554188695568186,68.66236159594665,68.16262846950413,69.40814261063771,71.50463438269706,89.02686458899949,98.35929247658979,83.42274999051266,91.86886649993316,100.85444422372277,93.06944903568667,88.46815349412456,67.53923354033844,44.5754189411343,32.0624556643415,10.391598803064882,2.9452207390221155,11.982142431238584,15.91815196585128,10.45388747060806,-4.8941926960160185,-7.379687838751821,-3.6066543955402244,-4.7379012538112635
107,11.69313110493161,26.636878242019062,44.340897654752254,58.56018761018652,55.977519481833724,55.46743351111438,48.00232962141461,41.57005760949649,40.885610297093194,37.50156499072346,40.8675960291226,41.383067520523035,32.67769137293124,30.433153516217587,29.95174730193793,41.19966356919989,60.63780027374768,64.71919644530914,63.59141979976157,51.83491256917896,49.00202571993448,68.03908256850353,70.53309100426156,51.06989420334656,53.11928673253483,64.3965462256105,64.13779206887597,65.71788190728964,67.90545793115534,85.26971116851576,93.20829330255488,73.13717095263449,79.35788212341541,90.93375193291504,84.5681250986472,80.85931805536111,63.99845842982324,43.33628109985626,33.94328632489327,14.68452929148675,5.867863689312765,44.167705416542894,68.58102315987338,48.45494133281146,21.749943159176482,11.178181983727946,9.912913589442542,6.003217016157729
108,9.674298697898,21.784706362771242,38.900145890740546,53.47221527849646,50.82637198027875,49.81190844046259,42.01815427001658,35.38512222743935,34.854087676173826,31.444521076252784,35.23386705782194,37.315379882958084,28.79857759526308,25.845675654133395,25.358603376327775,36.02692528812183,54.62859391999842,58.24408767213562,56.71076043055264,45.265211225444446,42.8154729591676,61.390705439764474,63.697717557453814,44.996241027304436,48.420087846267485,61.22418752773721,61.84631847872859,64.07660848488105,66.89000690347977,85.6014373569224,96.7380406833642,86.69267541687698,98.86513573225294,106.73984868844072,97.35089574512975,90.74394525524099,71.1973692225473,48.28537627242175,37.26258029022571,17.457245418357243,7.184059322307158,15.094614431830873,17.931271978360495,11.082117116354635,-5.0498408362715175,-6.282204834356718,3.0449577973703237,15.85370580108433
109,11.671559430221595,27.199701534903536,44.882298191245354,57.87969310209681,55.17099377341285,55.401233634299366,48.86093200900563,43.801136836608194,43.837006072465776,42.038628630672534,48.349536689850204,53.5869770133522,47.977084750633736,44.71192720419055,42.56564816584161,52.49572374926012,70.418227024586,73.95819896145981,73.7063860828299,61.54058620179895,57.05254155512213,75.68690157210717,78.2403899923462,58.29682884444732,60.30686736935469,72.45849020327712,72.93104457315363,74.37125041189049,76.37874526629281,93.8876170157187,103.57906887231039,88.7242681308929,98.33462446270899,108.49680455680266,101.23128638165275,97.8847145009614,79.74377746867154,55.584703430042254,44.31861872756521,25.220987070633583,15.036297020940731,23.667426743288786,26.123116222253493,17.965846938111664,2.1067670209079656,-0.8438626907882885,2.1653450346909535,3.8662083290861724
110,12.871962349556515,30.56942104318636,49.33307109359954,64.28546891158862,64.85430771369178,65.78512982464783,58.11141606374471,51.97839398795331,50.78444328576038,48.07376953364947,55.72573055360631,62.37854628667948,55.98744424827824,51.92013093592749,48.966437918523376,57.99679904845887,75.15432443032594,78.26912928215123,76.71715608587243,63.53951123817364,59.19016813976441,77.63825374460015,80.08624678731022,59.996221840947804,61.84684599187272,73.85618482108734,74.57751934643527,76.04374317050242,77.83029557902984,95.37790781249927,104.91628609888198,90.08667964446977,99.70765561068022,109.72460744108093,102.2855596101731,98.67795407410908,80.31566894613324,55.87600397598304,44.441631319580125,25.501966462433867,16.01927568395966,27.904728413106305,25.13872958632564,10.116033367446299,-3.666159067490718,-3.4442461482314695,0.6273631545523981,1.8108435554042446
111,13.879834499885083,32.15493540351473,50.961870016311956,66.62098791727594,61.57617064807787,57.6782138997316,51.90870366775816,47.155993122293786,47.07791464644849,44.75218752470101,52.230873009220204,57.34468927347461,49.90534091800646,46.820642127641534,44.874809477441374,54.33209356329243,71.6872040153535,75.06357172574818,72.91477569961573,59.55980378551385,55.65973230074604,74.07852177044964,76.67886440460006,57.272545675627526,59.72311100729668,72.08738662835542,73.15416774902316,74.80938975957741,76.55132123686987,93.13529470281973,99.45775097805756,87.32018087920429,101.28229030026479,110.1392730897683,101.80902545325915,96.9643334806275,78.10499435273589,54.186989574929875,43.17542331410268,24.893658502605426,14.836371278812997,22.927265939483362,25.4098113993898,19.91346067431418,6.131072487995846,1.6039267731962417,3.0500209537178193,3.50520856714502
112,11.752885370856523,28.01711309765771,45.98722497896142,60.605536163265455,56.722564302501965,54.293887735040194,48.850418669801485,44.51011625142261,44.80399577014183,43.26718509436414,48.910280411274904,52.90688719738448,46.90466038542916,43.919873837136834,42.28224330454488,52.75883883140148,71.20670760269064,74.05248024210132,71.69571945945914,58.93862080904841,54.74375300340235,72.39194216069467,74.75578952030294,55.62097398522135,58.10161315830585,70.22135490822848,70.9819652329244,72.68523297269897,74.3609431068311,91.93157715407676,101.78135842358927,87.08895373327904,96.34019753677646,102.08902347695738,91.53916048603915,96.27559403284224,84.74255443737259,58.77691503646153,45.842374507981326,25.42564933398321,13.430477778082881,20.690277782684596,23.767803486447526,15.945431516412366,-0.6064784952462672,-2.3820281599954454,2.164020565899089,3.718230011694069
113,11.894904672839719,27.278394783625302,44.76201139105849,58.298651156985905,56.64120730490763,57.0216582281218,49.82891267193201,44.11080865021806,43.61582396913562,40.21883466932803,44.748723853484535,47.165912052801794,39.17872570481921,36.864199269463626,36.22868713170506,46.31445557480649,63.666538470159786,66.33009832351087,64.48345369087458,53.00991586478971,49.77089329206425,68.03281012967629,70.84520740541349,51.79230847900158,56.42684285260877,70.05178434828562,71.01011204930305,72.76193123223926,73.40336826819298,90.55751182388374,100.03466283310604,84.82582032262924,93.78501261783249,103.20223230908637,94.75340288904384,88.9297257688846,70.07113708266917,47.12554312722138,36.11259832118192,16.693600783686747,6.099928474153629,15.347764551065048,12.040653906256194,-1.3126775680526404,-14.693554200831754,-13.349769911660928,-5.59571085213253,10.472919585341362
114,10.230065875453102,23.232157872135197,39.47159099927555,52.38001077384655,53.04524004975566,55.202206274216685,46.956154736877856,40.384711301741845,39.582622654518275,35.67083288904811,38.765488237237356,41.370242348023204,34.16160712518227,31.659640518535166,31.400902264874105,42.453821768872515,60.76965285837667,63.3617364227063,60.92728884582054,49.603668868848516,46.75488371097332,64.68647801270063,67.08523719922243,47.91979967115607,50.93998314508926,63.593704555007186,64.78850297550052,66.58807429783644,67.82083410878948,85.56066205448138,95.53903940630809,80.49283778128861,89.47176279034488,98.7785711659684,90.05631402905898,84.22439638164934,65.76506494333418,43.234203788835416,32.74675410474758,13.288605380341181,2.0385393177298017,8.06673329800748,9.339442874562545,2.3562489995610685,-13.160123161375733,-14.847159015869725,-11.287919916433658,-9.997469318649406
115,9.200646905294818,20.18750800182076,34.18657960780336,45.58656621999834,38.86963057056367,36.052448042146416,31.56604891400426,27.596036453276497,28.96980141394477,26.327371048233818,30.24317488745909,31.74011193140857,23.71413702853974,23.040875940206938,24.464499884056632,35.0740657774917,53.16092793504817,57.075417133220924,55.71866429576257,46.20810242540031,45.077362113630585,64.77340478478882,68.37532287123297,49.7241133499764,53.57143691956432,67.53015231705353,69.43743100191963,71.72240623950732,73.38940243531006,90.83742334359529,100.98851210660703,86.42643193352819,96.98326440071185,108.28810079167724,100.54296460654201,95.81138700915272,76.94594265291164,52.214704896185296,39.48859224681958,19.65596221668776,9.698343071313898,18.79607959339983,23.11191001824237,14.802837462102652,-2.721626957749172,6.912015159227252,27.05130617897949,11.327345954478977
116,12.15435025703879,28.371181054096247,45.42296647915313,58.12254339801812,53.371973978603535,51.52701118042742,46.682356282454485,43.0343814406577,43.74393405443105,41.753974025117095,48.4434244944689,56.53421911675949,52.75495742708702,49.30974235562123,47.08429989240321,56.07086833634504,72.99402570752292,75.8369214042368,74.44857421137642,62.9606147167715,59.03015746080155,77.03555464464372,79.4921824502413,59.43222004784672,60.99681983461106,73.34682627383086,71.52667961303321,71.10127752352142,74.34372739964965,93.11199091898392,104.23295961948875,90.32335048022927,101.6197958234136,107.69402556308395,96.13997822096135,87.20378648363528,64.12807344028808,43.00013586254472,34.078190938308296,17.32047298347122,9.033035339042982,19.427576541034128,24.700428763697776,17.638445650756342,2.0008304732674733,-41.32547489215242,-57.1013297326465,-29.970127573166764
117,12.647803961259136,30.178171889913255,49.13012513432079,63.296201864072245,59.443832356853804,57.823735185405525,52.61504986341881,48.76072375445156,49.08702866944841,46.80850119278163,54.05826560012985,62.4568517358598,58.306232357260896,54.73781341774819,52.26569452962558,60.58266712510679,76.63337511482158,78.59400751359303,76.75332061481402,65.41711280419477,61.314563949502315,78.80514715782186,80.67669663722471,60.44032298798561,63.83504319168955,77.18343082055019,83.18182320769552,88.85266900712581,87.72266101785338,103.2214403013931,112.06666815192783,96.67271226543316,106.6554007749144,116.36110886564707,107.3359275944519,102.60249709398923,83.77725442658038,56.77992839368979,58.09232761110532,50.99793295424735,33.33451719207477,35.10016522493254,34.87862239482233,24.517420191262904,5.930147678605422,2.0247969209381376,3.596411011699076,3.669167781136501
118,12.616377630049039,29.56727088066325,48.0156278114078,62.064990113705406,59.615634412782754,59.23075229803782,53.17152310757027,48.54936206705811,48.745681264383535,47.02924155566415,54.889755753543184,63.15244052374214,58.1548006941077,54.02339155947787,51.68039747404723,59.52576602071533,74.12923001149439,76.14927382540263,73.91380670548769,61.52140446077728,56.11450139145998,70.46068073285136,71.3370848868586,52.62827165233878,56.94254230042539,70.75260588610438,73.32973188158688,76.74319385957254,78.42609891805886,95.86319170075929,106.20892785632742,92.2791546245801,103.47521934757218,114.01786572474903,105.78615159168193,101.02982694337186,81.50153607946456,55.730474499476344,43.373163151347285,24.290726476991416,13.240928602960699,20.54444729751721,25.934321091550245,19.679837426714517,2.1446227165057206,-2.5564671741726075,0.6661963787516147,3.781386370968243
119,11.117518555751431,26.33911353162176,45.11982497794759,60.22237536581137,56.88201654737655,55.29089176924843,49.4138443849664,45.18355998661187,46.29074982511453,44.326855764624554,51.2423761976556,57.65366479423091,51.4428969235028,48.541209115699395,47.54193493220656,55.83592033256263,70.33915343502662,72.44038739366678,70.0126287592654,57.992751709802896,51.535337466216404,64.90098122576876,66.83589469429867,49.3430201053688,54.529873108212556,68.28583562164978,70.98003558541281,74.67876289106901,76.55249564847787,94.23731349167352,104.68140941107697,90.76680481938236,101.8819142513396,112.15912547358774,103.75816202074061,98.92057517107823,79.3438455441171,53.5672113670393,40.293406817785076,20.836936430521618,10.159140642160496,16.314383418922947,18.15317110942648,10.113907089882183,-5.897601395116366,0.7932926050336793,22.30119856308106,28.182552946922776
120,11.391884720548394,26.061134304826343,42.92170434272417,56.488105011295936,52.79472300703724,51.40580586925199,45.68142990660415,41.053594674372434,42.015461048768344,40.20317559656171,45.935002754157,50.801867327352475,44.33435034275166,42.25109927605037,42.16995955169266,50.829272461648316,65.97029957075792,68.51436501305771,65.53636289378485,53.21002995198623,46.53105542265532,59.887825403693896,62.21692944142608,45.533040229047764,51.88227424500249,66.31679843751621,69.01200948145703,72.42482286627389,74.14264797944831,90.85071065042806,100.50600079209731,86.44239698165354,97.27390661871742,107.79164510578697,99.55053594932606,94.27784891657708,75.65587750911195,49.60028626138194,33.99705236947115,12.284963784938478,0.4182659879884998,7.370142979717661,20.839526529774602,21.709800670075822,1.7436544464222745,-2.646627818634335,-0.34948126933113843,-0.42446687630846736
121,10.17786649642542,23.09781296055734,39.21871840010248,51.6477041808797,43.98937857760521,40.46064380055755,36.52486345249206,33.14540516578136,35.071989389209726,34.06621688957821,39.070928473149365,43.35358583121907,37.144322784634845,35.64863032094674,36.356562396505474,44.53896939347828,59.54386663153262,62.847209276537484,60.30966659740073,47.994619575859474,41.22149809584189,54.95482615152252,57.96638467180796,42.32446456656391,49.674152069106086,64.26113323634834,66.5466702713938,69.70445276121782,71.20576207463722,87.19784685323464,96.61114960851592,82.69121060461227,93.51040187420654,104.39218553782254,96.79107421121506,92.12413431043315,73.21716134821273,48.94891971495653,36.33462237686601,16.0296295632575,3.7364117671050625,31.761716060129,49.909653365888595,31.125942718590945,7.389643569160891,-0.48561609016527285,0.6857015124086121,0.12021462424260809
122,9.079099739361164,20.11671788425184,35.253316543422734,48.14842880846977,47.24950249240337,47.77084155958489,40.36741219357942,34.375006726491236,34.544686595473465,32.467232331918325,36.88249027196866,40.811304157987166,33.67334854363775,31.706957867354003,32.49028685336271,39.654808311471925,54.405912372260374,58.244290589812124,54.745051174466845,41.78606489761593,34.05035030024341,47.90681573401772,52.30738154387508,37.21345626548238,45.37356422535944,59.940071257020804,62.04436825520858,65.39259595687612,66.88577646361205,84.43765378771633,93.16038059503911,77.29672134760101,89.1377507401735,101.00057661355412,93.70533097935498,88.61068846098694,69.25782359770733,45.37173812474411,33.16883642307802,11.905701866463506,-1.169953879995293,4.914452656684533,6.907906544202924,-1.7533939888174226,-18.40476351096721,-20.5277118068064,-16.38512908355117,-15.334414106500187
123,8.457427927605726,17.99580989768065,31.307687366050313,42.63778532104807,37.058180702710274,34.83037272570162,29.932071655202297,26.411540019712348,28.669334098151097,28.522722325899757,34.03496893872803,38.77111836950645,33.301336258611755,32.61855075131253,33.67413848569207,42.91571142930816,59.25066249124201,63.359419804693694,61.19329872417783,48.79688463836295,38.48282081047382,52.19471301022027,58.86438602774062,43.480135679933916,51.730851958058636,67.5076102319454,70.87434233643135,75.07675467254683,77.2436488468534,93.12028595669464,102.56383473065978,89.16525838574277,102.32010504401143,115.2304887423952,108.2465892734997,104.50220845901833,84.63499842570762,57.91142702659663,44.75724359600247,24.2567042748925,11.068330233460879,18.39169408074936,22.63159785704858,13.716989802228735,-3.43074287696388,-4.140206109402147,3.1902144592042214,0.26157910633535364
124,11.932833819520992,27.88883104510429,45.56734810041445,59.867751154685614,56.838896781024175,55.15113755165234,49.549870358022865,45.572337303822984,46.58609904570195,46.43235660888324,55.06467891157534,64.28888696062461,60.09576195620411,57.04869240260589,54.62952303037871,61.2435623458136,75.79675892825698,78.9964601074396,75.368028067818,60.402218052183656,46.95176965062428,58.53459582823851,65.62502602540842,50.11063911922225,56.84174809406471,71.43919144284786,74.7706804531609,78.60704596122022,80.43789628552724,97.35038474401156,107.98923764973362,94.60086093258185,107.2516427975589,119.53375625001172,112.68738647806575,109.64513890294177,90.05521113719023,63.02258532386376,49.62270422533312,29.567746734425945,15.80245528935571,19.006581340684516,21.084867842404297,13.717872471128715,-2.2924541009095223,-2.6397271514648617,0.7296609463826929,0.4609654437908035
125,13.624236098321424,32.06765005396814,51.71140296876818,67.76194401632688,67.58460437519607,67.17102649003249,59.98240809664192,54.77814668807446,54.58989614866733,53.442045102187365,62.34491005023196,71.2827062567598,65.9962074401597,62.53460762658389,58.67900433472417,64.20554378574067,78.79538288702682,82.9629847035308,79.10706531212,63.40690098610658,47.29459423680249,55.58311939521367,62.79662348639934,49.00172427059726,56.02744249729074,69.820500664363,74.08712494643565,78.57768914324585,80.44028254837258,98.98774579004326,110.00267385279186,100.05751963619338,115.69291481330741,125.2308385449802,116.52759841730553,111.83724046795405,91.4283044419877,64.60942147738496,50.931753032712614,30.304629982310978,15.993086213314248,0.09655090599244431,-12.618987281864769,-12.174329048332838,-21.420840566317974,-17.421369160492297,-8.354302130766564,-1.903977037346551
126,13.629286271004524,32.21714571226819,51.70475007992284,68.23775522508927,65.35756753032369,62.07146736223996,55.179143763016825,50.203176077096536,51.45623601857487,52.02504558327255,61.466639565067226,71.36145697082785,66.91654568777795,62.39165534459209,57.67477791700558,61.73653599393256,75.53752822087414,81.09713697776264,77.58958859105505,60.525212969959284,41.819509115431224,49.817415243465256,59.28933552911324,47.3745421517724,55.095765332859834,68.82730617111822,73.79107282665294,78.22593439807449,79.79439168422495,98.92301958922732,111.81530262461551,94.64199505174341,102.90033996911723,117.55765084558612,112.22559805619704,102.08370717542343,78.92886525998401,55.7128328278616,44.31693727763895,24.60760088925138,10.575735198293948,14.478295348227428,18.356920604462147,13.852718780591779,-0.9950037127554454,-3.803122209819591,-0.2437383956959418,3.362022727506131
127,13.137426822832523,30.822507632397446,48.23638422008325,62.476780154922004,58.34963460344015,55.263454495286396,49.5140698563463,44.44733623767298,46.02515157528368,47.638917074241334,55.420917842190306,63.681083210704045,60.1701935299211,57.117908696914405,54.001064876112295,60.181571208713684,75.49146889512514,80.96706834408528,77.41291047499922,59.960847762518846,42.355922341052604,52.32874737421851,62.180482976425495,49.71878853204189,56.94554970754143,70.50862141575001,71.7424796571839,72.02128606572393,73.2466601259918,90.96136678078298,102.36574235063428,88.94917463982776,99.94204701637953,111.72502002744416,104.68355407581315,104.11458196944902,88.52391485203198,62.07193969675761,47.24965988661089,25.00977682471501,10.143666719440347,13.009556056225366,15.82600764283181,9.61669488059812,-6.634896920709091,-7.812537355978231,-3.0286689555750756,-1.0311561688918767
128,12.98698052001887,29.70174398850523,46.79633223179952,62.015612774207355,60.450319690490886,58.3947608784042,50.85834379668475,44.494831660006035,45.05950935057862,45.97838614377298,52.50702963439315,60.56912915635336,57.25071930936321,53.81036085894631,50.878583122326894,55.90531142446241,70.93237562870752,76.74116792941672,72.85846245030189,55.63131662568061,39.05171217094213,49.60938623776266,59.30748329306158,46.86389817795589,53.66087637444749,66.97907144224229,73.484228799198,77.60385543890992,76.35190036693166,92.29690450044805,102.52211783913165,88.15972391527737,98.11591218369682,108.30902541375866,99.9472090153028,94.33763312354009,75.58484028309842,52.26922848374308,39.906610838501464,18.488502831776078,4.301988050410445,8.604597786975194,10.496343873177606,3.1002120950328065,-12.535723539356532,-11.997457637999371,-6.67573273490776,4.12178354433698
129,11.579318787400528,26.007523909722114,41.57021510251199,55.98770549049885,49.40060450595378,44.23863958287184,39.56234130585997,35.141574881317894,37.42371331333798,39.15302927953136,44.39918677428223,50.54654812432523,47.07059100460756,44.91837761779846,43.33415089138588,50.440431548440856,66.77020315251475,72.68966292387731,69.41132221369732,52.79613889991164,37.14913062577275,47.78029182502448,56.90915299340323,44.35496068350332,51.99193496359453,65.8800890131049,69.90951478056103,71.84121890860962,70.65077828386852,85.40585380142656,94.95969675318277,81.99066216624459,92.71481226751092,103.20550043508476,94.81426128364507,88.59002167705856,69.95153518522933,46.96064460659652,34.98780752338498,14.051037696739696,-0.7209707681009325,1.202621361019781,3.1323499195145077,-4.646261857718877,-22.075201490675457,-25.378159156929968,-21.60587569821749,-15.319267703190022
130,10.81344809126691,23.545891695627095,37.86324822279579,50.87850327395036,47.58848388521882,45.98233365279518,39.83465976458355,34.14726735042841,35.58581815141166,36.1389610367274,40.608904639577624,44.517713137137065,38.729143839765,37.428326137815105,36.85723430366098,44.530388409446424,61.985169300372704,68.26946039790667,65.1992439737867,50.03095462185433,35.79319607988933,48.189440249853675,57.72335896994049,44.45480134747712,52.32794716739964,66.80770383735319,71.13783453695623,74.01341864606053,73.75405160278743,89.01881010326808,99.11570078795968,85.85412330931527,97.38788250242511,112.01257745104412,106.44363265497019,103.19184419735559,85.80252943911748,59.347490379260066,44.94317955812233,22.33709055618374,7.398418652103654,11.321338323428863,14.433112056346559,7.77496230562739,-9.10756987791037,12.395463476467567,19.00732130413651,2.9026654939990992
131,13.045449016168895,30.083911966913025,48.16555488317745,63.696247514179554,66.69405002855527,69.07215891992003,60.71514167566042,53.88569430449701,53.415698978381094,53.77921936110686,61.58109566176407,69.15396638205122,64.92174153838883,62.25685867602651,58.67601045242674,64.13964388791403,79.70964673832712,85.50980318234738,83.33238226432802,67.53752076995035,51.82157526402877,64.25852156692375,73.57564290858303,58.18249576513091,64.39318925831691,78.07160161830167,82.34429444364564,84.99024602538928,83.77657210727753,97.26040586805773,106.2098517930172,93.67312953920701,106.13551210328589,117.77636484396643,110.30732001756644,105.65159876310219,90.16164976839414,69.44326536884587,43.72691463122006,12.435160946736897,2.0301738524000905,8.871827716813819,14.673373162025806,9.003416399054359,-6.73092751213178,-7.404555245562456,-2.5197378264844468,1.0450145812537928
132,13.840050016972782,32.7777909146681,52.35838767391358,69.7108161049997,70.19604642673866,69.68891963803634,63.19935285720049,57.398784872708966,57.027993830468404,57.11308158453047,64.68993806852711,72.61931675643353,68.99962089431843,66.3739702050221,62.485957190244925,66.4420136913894,81.3226472142354,88.25761654824555,86.78754714911155,70.97371474109937,54.24389331477429,66.61934590380885,76.81822456261338,61.96156173035773,69.00248730795174,82.57071399455108,85.83207366789114,87.97475829237067,86.57250293549394,98.66935081294393,106.73521108476575,95.28919119984992,107.94861365173674,119.07783264504542,111.55177520361704,106.61703959589286,87.12002366716052,61.10785158895562,47.48971984819748,27.98987490608444,14.296058832573358,17.236517385295475,19.445646836040115,12.269039492772642,-4.005150102265283,-6.426176020825903,-6.336864612080644,-5.5525347196368795
133,14.621489871176921,34.02661578262361,53.35736642755884,69.25702565052276,63.50622081317871,60.055286962661214,56.46296559863752,52.69531983024616,53.49729461594163,52.8978762517443,59.83877661615388,69.30580316703825,67.02387028313025,64.39752396282465,60.600790896065064,65.66430275732505,81.9453002978032,88.77317253473373,86.24751713875303,70.40281757066751,53.67594616984207,66.40288100786574,77.6353417956901,63.7515524362113,71.42893149385759,84.51868966789657,87.0369702188161,88.62373989354332,86.76289455592661,98.50304933161866,106.57446864214191,95.84049760324916,108.83863939669506,119.41434984973284,111.6802263767434,106.45592943449853,86.2569880595423,60.08216284448894,47.20875999636424,28.173715879100275,14.159061637142571,17.391120360146026,17.3378036310797,7.990435672002412,-6.967117515883647,-9.018162230359392,-10.546048634831706,-12.29563245358574
134,14.017760923594468,32.726969065648234,52.793957572204874,69.40697479490385,65.99536429703406,64.28671377892432,59.4708812270929,55.12185078983598,55.335033078775005,53.29325042882527,59.02223487808102,66.36938310080707,62.747669375265765,60.81793776792756,57.732617182232076,64.98258006970067,83.16834445838053,89.84768379771276,87.36338902798295,71.56575699033584,54.557978189761414,66.34949860701865,76.4449684647409,62.449802751206086,69.36607992601887,81.80493569075252,84.58390339461782,86.80301377733915,85.52044490306882,99.6388202263245,109.65452951411426,97.94959083778055,109.99768832394264,119.92125806498323,110.45366890405543,103.39964041953588,84.27451175192509,59.33267669080941,46.083772783221725,26.307680331355726,11.664596787608529,14.697175404009805,16.028909864379596,8.553316744051202,-6.625833737260381,23.96404761430972,45.77185084228952,30.116830562632682
